indice,voltaje
0,1.913919413919414
1,1.9187545787545786
2,1.9268131868131866
3,1.9308424908424906
4,1.9284249084249083
5,1.9243956043956043
6,1.9324542124542123
7,1.926007326007326
8,1.9316483516483516
9,1.9187545787545786
10,1.9227838827838826
11,1.9203663003663003
12,1.9163369963369963
13,1.9123076923076923
14,1.8937728937728937
15,1.9042490842490842
16,1.9058608058608058
17,1.9018315018315017
18,1.9018315018315017
19,1.9155311355311353
20,1.9147252747252745
21,1.9316483516483516
22,1.9332600732600733
23,1.9485714285714284
24,1.9558241758241757
25,1.9703296703296704
26,1.9864468864468865
27,2.003369963369963
28,2.0178754578754576
29,2.0259340659340657
30,2.0484981684981687
31,2.0654212454212453
32,2.0670329670329672
33,2.084761904761905
34,2.0895970695970694
35,2.087985347985348
36,2.083956043956044
37,2.0815384615384613
38,2.07992673992674
39,2.0630036630036632
40,2.0509157509157507
41,2.031575091575091
42,2.021098901098901
43,1.9985347985347985
44,1.9743589743589745
45,1.9485714285714284
46,1.9308424908424906
47,1.9147252747252745
48,1.88007326007326
49,1.8599267399267398
50,1.83010989010989
51,1.8043223443223442
52,1.7873992673992674
53,1.764029304029304
54,1.735018315018315
55,1.7398534798534797
56,1.7197069597069596
57,1.722124542124542
58,1.7172893772893771
59,1.7213186813186812
60,1.7326007326007327
61,1.7245421245421246
62,1.7535531135531133
63,1.759194139194139
64,1.7793406593406593
65,1.784981684981685
66,1.8067399267399267
67,1.8373626373626373
68,1.8486446886446886
69,1.8655677655677656
70,1.88007326007326
71,1.9042490842490842
72,1.921172161172161
73,1.9389010989010986
74,1.9485714285714284
75,1.9654945054945054
76,1.9703296703296704
77,1.9654945054945054
78,1.9969230769230768
79,2.004175824175824
80,2.003369963369963
81,2.0106227106227106
82,2.0178754578754576
83,2.0202930402930406
84,2.012234432234432
85,2.0146520146520146
86,2.008205128205128
87,2.0146520146520146
88,2.0146520146520146
89,2.021098901098901
90,2.0186813186813186
91,2.015457875457875
92,2.0098168498168496
93,1.9977289377289378
94,1.9799999999999998
95,1.9703296703296704
96,1.963076923076923
97,1.9534065934065934
98,1.9437362637362636
99,1.9235897435897436
100,1.9276190476190476
101,1.934065934065934
102,1.9324542124542123
103,1.9348717948717946
104,1.9389010989010986
105,1.9389010989010986
106,1.9453479853479854
107,1.9469597069597069
108,1.9574358974358974
109,1.9461538461538461
110,1.9501831501831501
111,1.959047619047619
112,1.9526007326007324
113,1.9534065934065934
114,1.950989010989011
115,1.9566300366300367
116,1.9493772893772894
117,1.9485714285714284
118,1.9501831501831501
119,1.955018315018315
120,1.9582417582417582
121,1.9437362637362636
122,1.9461538461538461
123,1.942124542124542
124,1.9364835164835164
125,1.9356776556776556
126,1.9235897435897436
127,1.9348717948717946
128,1.9276190476190476
129,1.9268131868131866
130,1.921978021978022
131,1.9364835164835164
132,1.9372893772893773
133,1.9413186813186813
134,1.9437362637362636
135,1.942124542124542
136,1.9534065934065934
137,1.9477655677655676
138,1.9574358974358974
139,1.9517948717948717
140,1.9598534798534797
141,1.9687179487179487
142,1.979194139194139
143,1.995311355311355
144,1.9977289377289378
145,2.0106227106227106
146,2.0219047619047616
147,2.0307692307692307
148,2.0388278388278387
149,2.0525274725274727
150,2.0630036630036632
151,2.0726739926739928
152,2.0670329670329672
153,2.0646153846153847
154,2.0557509157509157
155,2.071868131868132
156,2.0694505494505493
157,2.0613919413919413
158,2.049304029304029
159,2.0517216117216117
160,2.0460805860805857
161,2.0428571428571427
162,2.025128205128205
163,2.009010989010989
164,1.991282051282051
165,1.9783882783882785
166,1.9461538461538461
167,1.921172161172161
168,1.8953846153846152
169,1.8679853479853479
170,1.859120879120879
171,1.8357509157509158
172,1.8188278388278387
173,1.7922344322344321
174,1.7712820512820513
175,1.7583882783882783
176,1.759194139194139
177,1.7503296703296702
178,1.751941391941392
179,1.7446886446886447
180,1.7487179487179487
181,1.7463003663003662
182,1.7608058608058608
183,1.7608058608058608
184,1.7696703296703296
185,1.7817582417582416
186,1.7946520146520146
187,1.8043223443223442
188,1.8099633699633697
189,1.826080586080586
190,1.8357509157509158
191,1.834139194139194
192,1.8558974358974358
193,1.8768498168498169
194,1.8857142857142857
195,1.901025641025641
196,1.913113553113553
197,1.934065934065934
198,1.9437362637362636
199,1.9501831501831501
200,1.9719413919413917
201,1.992087912087912
202,2.003369963369963
203,2.008205128205128
204,2.0307692307692307
205,2.0396336996336997
206,2.0541391941391938
207,2.0484981684981687
208,2.0589743589743588
209,2.062197802197802
210,2.0654212454212453
211,2.0638095238095238
212,2.0557509157509157
213,2.0476923076923077
214,2.0364102564102566
215,2.012234432234432
216,2.0065934065934066
217,1.996117216117216
218,1.9767765567765567
219,1.9622710622710622
220,1.9389010989010986
221,1.926007326007326
222,1.9026373626373625
223,1.8857142857142857
224,1.8824908424908424
225,1.8607326007326006
226,1.8413919413919413
227,1.8389743589743588
228,1.8268864468864467
229,1.8244688644688645
230,1.8284981684981685
231,1.83010989010989
232,1.8164102564102564
233,1.8325274725274725
234,1.8212454212454212
235,1.8373626373626373
236,1.8567032967032966
237,1.8695970695970696
238,1.88007326007326
239,1.9066666666666665
240,1.921978021978022
241,1.9324542124542123
242,1.9558241758241757
243,1.9534065934065934
244,1.975164835164835
245,1.9896703296703295
246,1.9969230769230768
247,2.015457875457875
248,2.027545787545787
249,2.019487179487179
250,2.027545787545787
251,2.037216117216117
252,2.021098901098901
253,2.0219047619047616
254,2.004175824175824
255,2.008205128205128
256,1.996117216117216
257,1.995311355311355
258,1.996117216117216
259,1.9936996336996335
260,1.9856410256410255
261,1.9783882783882785
262,1.9743589743589745
263,1.9848351648351648
264,1.9783882783882785
265,1.9936996336996335
266,1.9888644688644688
267,1.9985347985347985
268,2.004175824175824
269,2.0098168498168496
270,2.0017582417582416
271,2.011428571428571
272,2.000952380952381
273,1.9977289377289378
274,2.00014652014652
275,1.987252747252747
276,1.9848351648351648
277,1.9727472527472527
278,1.9743589743589745
279,1.9582417582417582
280,1.9646886446886447
281,1.9485714285714284
282,1.9437362637362636
283,1.942124542124542
284,1.925201465201465
285,1.9284249084249083
286,1.9147252747252745
287,1.9123076923076923
288,1.9002197802197802
289,1.8978021978021977
290,1.8744322344322342
291,1.8776556776556776
292,1.8615384615384616
293,1.8389743589743588
294,1.8317216117216117
295,1.8188278388278387
296,1.8131868131868132
297,1.8099633699633697
298,1.8067399267399267
299,1.7986813186813186
300,1.8043223443223442
301,1.8067399267399267
302,1.8059340659340657
303,1.8276923076923075
304,1.8405860805860805
305,1.85025641025641
306,1.863150183150183
307,1.8905494505494504
308,1.9115018315018313
309,1.942124542124542
310,1.9719413919413917
311,2.0025641025641026
312,2.0428571428571427
313,2.049304029304029
314,2.066227106227106
315,2.092014652014652
316,2.096043956043956
317,2.1016849816849814
318,2.088791208791209
319,2.083956043956044
320,2.0734798534798533
321,2.0525274725274727
322,2.0428571428571427
323,2.017069597069597
324,1.996117216117216
325,1.963076923076923
326,1.9364835164835164
327,1.8961904761904762
328,1.8687912087912089
329,1.8389743589743588
330,1.8147985347985347
331,1.789010989010989
332,1.7696703296703296
333,1.7785347985347983
334,1.7495238095238093
335,1.7543589743589743
336,1.755164835164835
337,1.7616117216117215
338,1.7785347985347983
339,1.7817582417582416
340,1.7898168498168496
341,1.8115750915750914
342,1.826080586080586
343,1.8438095238095238
344,1.8615384615384616
345,1.8663736263736261
346,1.8816849816849817
347,1.8937728937728937
348,1.892967032967033
349,1.9042490842490842
350,1.917142857142857
351,1.9276190476190476
352,1.9324542124542123
353,1.93003663003663
354,1.9397069597069596
355,1.9485714285714284
356,1.9429304029304026
357,1.959047619047619
358,1.9679120879120877
359,1.9727472527472527
360,1.9679120879120877
361,1.9703296703296704
362,1.9759706959706957
363,1.9646886446886447
364,1.9719413919413917
365,1.9654945054945054
366,1.9614652014652014
367,1.9663003663003662
368,1.9598534798534797
369,1.9654945054945054
370,1.9517948717948717
371,1.9534065934065934
372,1.9485714285714284
373,1.9461538461538461
374,1.9389010989010986
375,1.9461538461538461
376,1.9469597069597069
377,1.93003663003663
378,1.9308424908424906
379,1.9268131868131866
380,1.9324542124542123
381,1.9058608058608058
382,1.9058608058608058
383,1.9002197802197802
384,1.888937728937729
385,1.884102564102564
386,1.859120879120879
387,1.8567032967032966
388,1.838168498168498
389,1.8164102564102564
390,1.7994871794871794
391,1.7946520146520146
392,1.78014652014652
393,1.7712820512820513
394,1.7712820512820513
395,1.763223443223443
396,1.7624175824175823
397,1.772087912087912
398,1.7833699633699633
399,1.7938461538461536
400,1.8019047619047617
401,1.8139926739926737
402,1.83010989010989
403,1.85025641025641
404,1.8744322344322342
405,1.8768498168498169
406,1.8961904761904762
407,1.9235897435897436
408,1.9437362637362636
409,1.955018315018315
410,1.959047619047619
411,1.979194139194139
412,1.9848351648351648
413,1.991282051282051
414,1.9775824175824175
415,1.9663003663003662
416,1.9719413919413917
417,1.967106227106227
418,1.9429304029304026
419,1.926007326007326
420,1.9195604395604395
421,1.8986080586080585
422,1.8784615384615382
423,1.8639560439560439
424,1.8494505494505495
425,1.8397802197802198
426,1.8196336996336995
427,1.8115750915750914
428,1.7986813186813186
429,1.7882051282051281
430,1.7785347985347983
431,1.7873992673992674
432,1.772087912087912
433,1.7857875457875456
434,1.784981684981685
435,1.8043223443223442
436,1.8164102564102564
437,1.8365567765567765
438,1.8671794871794871
439,1.892967032967033
440,1.917948717948718
441,1.950989010989011
442,1.9687179487179487
443,1.983223443223443
444,2.013040293040293
445,2.0436630036630037
446,2.0670329670329672
447,2.096849816849817
448,2.0992673992673994
449,2.104908424908425
450,2.1032967032967034
451,2.0871794871794873
452,2.0791208791208793
453,2.0484981684981687
454,2.0323809523809526
455,1.995311355311355
456,1.9936996336996335
457,1.9558241758241757
458,1.9429304029304026
459,1.9058608058608058
460,1.8816849816849817
461,1.846227106227106
462,1.842197802197802
463,1.8252747252747252
464,1.8164102564102564
465,1.8164102564102564
466,1.8075457875457874
467,1.8164102564102564
468,1.8284981684981685
469,1.8268864468864467
470,1.842197802197802
471,1.8430036630036628
472,1.8446153846153845
473,1.8470329670329668
474,1.8486446886446886
475,1.8494505494505495
476,1.8365567765567765
477,1.8309157509157508
478,1.842197802197802
479,1.8365567765567765
480,1.8373626373626373
481,1.8494505494505495
482,1.854285714285714
483,1.8736263736263736
484,1.888131868131868
485,1.9058608058608058
486,1.9026373626373625
487,1.90989010989011
488,1.8865201465201464
489,1.888937728937729
490,1.8663736263736261
491,1.8510622710622708
492,1.838168498168498
493,1.8454212454212455
494,1.8438095238095238
495,1.8365567765567765
496,1.8470329670329668
497,1.8494505494505495
498,1.8526739926739926
499,1.8736263736263736
500,1.8704029304029302
501,1.8897435897435897
502,1.896996336996337
503,1.9058608058608058
504,1.9195604395604395
505,1.9235897435897436
506,1.93003663003663
507,1.9397069597069596
508,1.9493772893772894
509,1.9356776556776556
510,1.938095238095238
511,1.929230769230769
512,1.9115018315018313
513,1.9034432234432233
514,1.888131868131868
515,1.859120879120879
516,1.8389743589743588
517,1.8172161172161172
518,1.7882051282051281
519,1.768058608058608
520,1.743076923076923
521,1.7132600732600731
522,1.6923076923076923
523,1.6649084249084247
524,1.6471794871794871
525,1.6278388278388278
526,1.6044688644688643
527,1.5964102564102562
528,1.5883516483516482
529,1.5875457875457875
530,1.5996336996336997
531,1.602051282051282
532,1.61010989010989
533,1.6318681318681318
534,1.6455677655677654
535,1.6616849816849815
536,1.6552380952380952
537,1.7164835164835164
538,1.7293772893772892
539,1.7535531135531133
540,1.7688644688644688
541,1.7986813186813186
542,1.8164102564102564
543,1.85025641025641
544,1.8671794871794871
545,1.8905494505494504
546,1.8897435897435897
547,1.921172161172161
548,1.9276190476190476
549,1.9356776556776556
550,1.938095238095238
551,1.93003663003663
552,1.9348717948717946
553,1.9163369963369963
554,1.9026373626373625
555,1.8978021978021977
556,1.8704029304029302
557,1.859120879120879
558,1.8309157509157508
559,1.8196336996336995
560,1.7994871794871794
561,1.793040293040293
562,1.7898168498168496
563,1.7809523809523808
564,1.7769230769230768
565,1.7736996336996336
566,1.768058608058608
567,1.7736996336996336
568,1.784981684981685
569,1.789010989010989
570,1.8019047619047617
571,1.8091575091575092
572,1.8188278388278387
573,1.8276923076923075
574,1.8276923076923075
575,1.8196336996336995
576,1.8204395604395605
577,1.8156043956043955
578,1.8067399267399267
579,1.8051282051282052
580,1.8027106227106227
581,1.8067399267399267
582,1.8228571428571427
583,1.8147985347985347
584,1.8236630036630035
585,1.8268864468864467
586,1.8430036630036628
587,1.8470329670329668
588,1.846227106227106
589,1.8647619047619046
590,1.8736263736263736
591,1.8687912087912089
592,1.8728205128205129
593,1.8695970695970696
594,1.8526739926739926
595,1.8486446886446886
596,1.8454212454212455
597,1.8317216117216117
598,1.8317216117216117
599,1.8164102564102564
600,1.8123809523809524
601,1.8027106227106227
602,1.784175824175824
603,1.8010989010989011
604,1.8010989010989011
605,1.7970695970695971
606,1.8051282051282052
607,1.7938461538461536
608,1.793040293040293
609,1.7946520146520146
610,1.767252747252747
611,1.755164835164835
612,1.7414652014652012
613,1.7414652014652012
614,1.739047619047619
615,1.7326007326007327
616,1.747912087912088
617,1.7197069597069596
618,1.7358241758241757
619,1.7213186813186812
620,1.7108424908424908
621,1.722930402930403
622,1.6810256410256408
623,1.7035897435897436
624,1.7140659340659339
625,1.7189010989010989
626,1.7285714285714286
627,1.7446886446886447
628,1.7543589743589743
629,1.7648351648351648
630,1.7857875457875456
631,1.8075457875457874
632,1.8373626373626373
633,1.842197802197802
634,1.8913553113553112
635,1.9018315018315017
636,1.9115018315018313
637,1.9372893772893773
638,1.9453479853479854
639,1.9598534798534797
640,1.9759706959706957
641,1.979194139194139
642,1.9888644688644688
643,1.9945054945054945
644,2.004175824175824
645,2.017069597069597
646,2.027545787545787
647,2.0380219780219777
648,2.0420512820512817
649,2.0460805860805857
650,2.041245421245421
651,2.0283516483516486
652,2.0138461538461536
653,1.9904761904761905
654,1.950989010989011
655,1.921172161172161
656,1.884908424908425
657,1.854285714285714
658,1.8075457875457874
659,1.7857875457875456
660,1.739047619047619
661,1.7060073260073259
662,1.6761904761904762
663,1.6487912087912087
664,1.6093040293040293
665,1.5827106227106227
666,1.5601465201465199
667,1.5464468864468863
668,1.531135531135531
669,1.5246886446886445
670,1.519047619047619
671,1.515018315018315
672,1.5254945054945055
673,1.5182417582417582
674,1.5142124542124542
675,1.5254945054945055
676,1.5295238095238095
677,1.5464468864468863
678,1.5553113553113553
679,1.5867399267399267
680,1.5947985347985347
681,1.6133333333333333
682,1.627032967032967
683,1.6399267399267399
684,1.6681318681318682
685,1.6931135531135528
686,1.7172893772893771
687,1.726959706959707
688,1.7664468864468863
689,1.7777289377289376
690,1.7712820512820513
691,1.8019047619047617
692,1.793040293040293
693,1.7954578754578754
694,1.789010989010989
695,1.7753113553113553
696,1.776117216117216
697,1.7575824175824175
698,1.7527472527472527
699,1.7382417582417582
700,1.7237362637362637
701,1.7317948717948717
702,1.7277655677655677
703,1.7197069597069596
704,1.7108424908424908
705,1.7140659340659339
706,1.6987545787545786
707,1.6802197802197802
708,1.6584615384615384
709,1.6584615384615384
710,1.6576556776556775
711,1.656043956043956
712,1.6407326007326006
713,1.6294505494505493
714,1.6213919413919413
715,1.6068864468864468
716,1.5988278388278387
717,1.593186813186813
718,1.589157509157509
719,1.5601465201465199
720,1.5528937728937728
721,1.5416117216117216
722,1.5408058608058606
723,1.523076923076923
724,1.5142124542124542
725,1.5053479853479852
726,1.5158241758241757
727,1.5263003663003663
728,1.5303296703296703
729,1.5545054945054944
730,1.5738461538461537
731,1.6109157509157508
732,1.6568498168498167
733,1.6915018315018315
734,1.7197069597069596
735,1.759194139194139
736,1.7865934065934064
737,1.8156043956043955
738,1.8454212454212455
739,1.858315018315018
740,1.8784615384615382
741,1.8905494505494504
742,1.9018315018315017
743,1.909084249084249
744,1.921978021978022
745,1.926007326007326
746,1.917142857142857
747,1.9332600732600733
748,1.8937728937728937
749,1.901025641025641
750,1.8695970695970696
751,1.8430036630036628
752,1.8051282051282052
753,1.7583882783882783
754,1.7084249084249084
755,1.6649084249084247
756,1.63025641025641
757,1.6004395604395603
758,1.5698168498168497
759,1.5528937728937728
760,1.5238827838827838
761,1.506959706959707
762,1.4884249084249084
763,1.4698901098901098
764,1.473113553113553
765,1.46021978021978
766,1.469084249084249
767,1.4843956043956044
768,1.498901098901099
769,1.5045421245421244
770,1.5174358974358972
771,1.5399999999999998
772,1.5456410256410256
773,1.5649816849816849
774,1.5649816849816849
775,1.5778754578754577
776,1.6028571428571428
777,1.627032967032967
778,1.6528205128205127
779,1.6786080586080585
780,1.7003663003663003
781,1.7277655677655677
782,1.7535531135531133
783,1.76
784,1.78014652014652
785,1.8019047619047617
786,1.8164102564102564
787,1.8196336996336995
788,1.8204395604395605
789,1.826080586080586
790,1.83010989010989
791,1.8123809523809524
792,1.8156043956043955
793,1.7946520146520146
794,1.78014652014652
795,1.7495238095238093
796,1.7237362637362637
797,1.6898901098901098
798,1.6721611721611722
799,1.626227106227106
800,1.6173626373626373
801,1.6028571428571428
802,1.585934065934066
803,1.5802930402930402
804,1.5545054945054944
805,1.5545054945054944
806,1.5520879120879119
807,1.5416117216117216
808,1.5520879120879119
809,1.5440293040293038
810,1.5448351648351648
811,1.5585347985347986
812,1.5553113553113553
813,1.5633699633699634
814,1.5706227106227106
815,1.5907692307692307
816,1.5947985347985347
817,1.598021978021978
818,1.618168498168498
819,1.63025641025641
820,1.6431501831501831
821,1.6471794871794871
822,1.6697435897435897
823,1.6536263736263734
824,1.6697435897435897
825,1.6657142857142855
826,1.6641025641025642
827,1.6568498168498167
828,1.6495970695970694
829,1.6334798534798534
830,1.627032967032967
831,1.6439560439560439
832,1.623003663003663
833,1.626227106227106
834,1.6238095238095238
835,1.6278388278388278
836,1.63025641025641
837,1.6294505494505493
838,1.6246153846153844
839,1.6205860805860803
840,1.618168498168498
841,1.618974358974359
842,1.6076923076923078
843,1.6197802197802198
844,1.605274725274725
845,1.6165567765567763
846,1.6205860805860803
847,1.6254212454212453
848,1.6238095238095238
849,1.6238095238095238
850,1.614139194139194
851,1.6149450549450548
852,1.6173626373626373
853,1.598021978021978
854,1.5964102564102562
855,1.5883516483516482
856,1.593992673992674
857,1.5762637362637362
858,1.5706227106227106
859,1.5577289377289376
860,1.5601465201465199
861,1.5303296703296703
862,1.5319413919413918
863,1.5254945054945055
864,1.5166300366300365
865,1.5246886446886445
866,1.5134065934065932
867,1.527106227106227
868,1.5359706959706958
869,1.5359706959706958
870,1.5504761904761903
871,1.5625641025641026
872,1.573040293040293
873,1.5802930402930402
874,1.5883516483516482
875,1.6084981684981683
876,1.6133333333333333
877,1.614139194139194
878,1.6415384615384614
879,1.6367032967032966
880,1.6624908424908424
881,1.6745787545787545
882,1.6794139194139193
883,1.7027838827838826
884,1.705201465201465
885,1.6979487179487178
886,1.6834432234432235
887,1.652014652014652
888,1.6552380952380952
889,1.631062271062271
890,1.618974358974359
891,1.5883516483516482
892,1.5553113553113553
893,1.5440293040293038
894,1.5343589743589743
895,1.523076923076923
896,1.4964835164835164
897,1.4739194139194138
898,1.4843956043956044
899,1.4747252747252748
900,1.4594139194139193
901,1.4626373626373625
902,1.472307692307692
903,1.4747252747252748
904,1.4997069597069594
905,1.4964835164835164
906,1.5166300366300365
907,1.5254945054945055
908,1.5601465201465199
909,1.568205128205128
910,1.581904761904762
911,1.601245421245421
912,1.6149450549450548
913,1.6246153846153844
914,1.614139194139194
915,1.6238095238095238
916,1.6133333333333333
917,1.6165567765567763
918,1.606080586080586
919,1.61010989010989
920,1.61010989010989
921,1.5883516483516482
922,1.5883516483516482
923,1.577069597069597
924,1.5617582417582416
925,1.5569230769230769
926,1.5408058608058606
927,1.5480586080586078
928,1.5375824175824175
929,1.5536996336996336
930,1.5617582417582416
931,1.585128205128205
932,1.5786813186813187
933,1.58996336996337
934,1.6157509157509158
935,1.627032967032967
936,1.6238095238095238
937,1.6318681318681318
938,1.6286446886446884
939,1.6358974358974359
940,1.6278388278388278
941,1.6109157509157508
942,1.605274725274725
943,1.5964102564102562
944,1.597216117216117
945,1.5883516483516482
946,1.5802930402930402
947,1.5617582417582416
948,1.5665934065934066
949,1.5496703296703296
950,1.5343589743589743
951,1.5126007326007325
952,1.5206593406593405
953,1.494871794871795
954,1.481172161172161
955,1.4843956043956044
956,1.4795604395604394
957,1.468278388278388
958,1.461025641025641
959,1.4594139194139193
960,1.435238095238095
961,1.4384615384615385
962,1.444102564102564
963,1.4505494505494505
964,1.4529670329670328
965,1.4779487179487178
966,1.4860073260073259
967,1.5053479853479852
968,1.5351648351648353
969,1.5496703296703296
970,1.5746520146520147
971,1.585934065934066
972,1.6093040293040293
973,1.6246153846153844
974,1.6342857142857141
975,1.6528205128205127
976,1.6697435897435897
977,1.6689377289377287
978,1.6697435897435897
979,1.6713553113553112
980,1.6616849816849815
981,1.6624908424908424
982,1.6673260073260072
983,1.6600732600732602
984,1.6415384615384614
985,1.63025641025641
986,1.6197802197802198
987,1.598021978021978
988,1.5827106227106227
989,1.5520879120879119
990,1.5391941391941393
991,1.5174358974358972
992,1.4964835164835164
993,1.468278388278388
994,1.452161172161172
995,1.4287912087912087
996,1.4102564102564104
997,1.3997802197802196
998,1.394139194139194
999,1.3925274725274723
1000,1.4094505494505494
1001,1.3917216117216116
1002,1.4142857142857144
1003,1.411062271062271
1004,1.423150183150183
1005,1.41992673992674
1006,1.4287912087912087
1007,1.4263736263736264
1008,1.423150183150183
1009,1.427179487179487
1010,1.4408791208791207
1011,1.435238095238095
1012,1.4424908424908425
1013,1.452161172161172
1014,1.4505494505494505
1015,1.4553846153846153
1016,1.4513553113553113
1017,1.4594139194139193
1018,1.464249084249084
1019,1.4594139194139193
1020,1.4529670329670328
1021,1.4465201465201465
1022,1.443296703296703
1023,1.4416849816849817
1024,1.427985347985348
1025,1.4489377289377288
1026,1.4424908424908425
1027,1.4497435897435897
1028,1.4545787545787545
1029,1.473113553113553
1030,1.4795604395604394
1031,1.4884249084249084
1032,1.5037362637362635
1033,1.5037362637362635
1034,1.5134065934065932
1035,1.5126007326007325
1036,1.5126007326007325
1037,1.5279120879120878
1038,1.531135531135531
1039,1.5359706959706958
1040,1.5238827838827838
1041,1.5440293040293038
1042,1.5561172161172159
1043,1.5561172161172159
1044,1.564175824175824
1045,1.568205128205128
1046,1.5867399267399267
1047,1.602051282051282
1048,1.5996336996336997
1049,1.6165567765567763
1050,1.6036630036630037
1051,1.601245421245421
1052,1.5988278388278387
1053,1.5923809523809522
1054,1.577069597069597
1055,1.5545054945054944
1056,1.5246886446886445
1057,1.5198534798534797
1058,1.5021245421245422
1059,1.4876190476190474
1060,1.46021978021978
1061,1.4344322344322344
1062,1.4142857142857144
1063,1.3933333333333333
1064,1.3675457875457875
1065,1.345787545787546
1066,1.3425641025641024
1067,1.3401465201465201
1068,1.3248351648351648
1069,1.3328937728937729
1070,1.3272527472527471
1071,1.3361172161172161
1072,1.340952380952381
1073,1.357069597069597
1074,1.365934065934066
1075,1.382051282051282
1076,1.3957509157509156
1077,1.4223443223443224
1078,1.4537728937728938
1079,1.469084249084249
1080,1.4972893772893772
1081,1.5335531135531135
1082,1.5440293040293038
1083,1.5545054945054944
1084,1.5706227106227106
1085,1.581904761904762
1086,1.5964102564102562
1087,1.5964102564102562
1088,1.5843223443223442
1089,1.5843223443223442
1090,1.5786813186813187
1091,1.5843223443223442
1092,1.5649816849816849
1093,1.5504761904761903
1094,1.5359706959706958
1095,1.5077655677655677
1096,1.4819780219780219
1097,1.4715018315018313
1098,1.4529670329670328
1099,1.4368498168498167
1100,1.4223443223443224
1101,1.427179487179487
1102,1.4126739926739926
1103,1.4102564102564104
1104,1.4005860805860806
1105,1.402197802197802
1106,1.4030036630036629
1107,1.415091575091575
1108,1.4102564102564104
1109,1.427985347985348
1110,1.4247619047619047
1111,1.444102564102564
1112,1.464249084249084
1113,1.4578021978021978
1114,1.4658608058608058
1115,1.46021978021978
1116,1.4586080586080585
1117,1.4537728937728938
1118,1.464249084249084
1119,1.4449084249084247
1120,1.4497435897435897
1121,1.436043956043956
1122,1.4344322344322344
1123,1.4344322344322344
1124,1.4070329670329669
1125,1.4102564102564104
1126,1.394139194139194
1127,1.3788278388278385
1128,1.378021978021978
1129,1.3627106227106225
1130,1.353846153846154
1131,1.3667399267399265
1132,1.357069597069597
1133,1.361098901098901
1134,1.382051282051282
1135,1.3756043956043955
1136,1.3917216117216116
1137,1.4078388278388276
1138,1.423150183150183
1139,1.439267399267399
1140,1.46021978021978
1141,1.46021978021978
1142,1.4884249084249084
1143,1.4972893772893772
1144,1.5005128205128204
1145,1.5013186813186812
1146,1.4940659340659341
1147,1.506959706959707
1148,1.4884249084249084
1149,1.4779487179487178
1150,1.4666666666666666
1151,1.4424908424908425
1152,1.4344322344322344
1153,1.435238095238095
1154,1.4207326007326007
1155,1.4255677655677654
1156,1.4013919413919413
1157,1.4118681318681316
1158,1.3876923076923076
1159,1.3828571428571428
1160,1.386080586080586
1161,1.382051282051282
1162,1.3876923076923076
1163,1.3747985347985345
1164,1.3949450549450548
1165,1.3917216117216116
1166,1.4102564102564104
1167,1.4070329670329669
1168,1.4247619047619047
1169,1.443296703296703
1170,1.4545787545787545
1171,1.4513553113553113
1172,1.4529670329670328
1173,1.4795604395604394
1174,1.5085714285714285
1175,1.506959706959707
1176,1.5142124542124542
1177,1.5319413919413918
1178,1.5319413919413918
1179,1.5295238095238095
1180,1.5214652014652015
1181,1.5198534798534797
1182,1.5335531135531135
1183,1.5295238095238095
1184,1.5021245421245422
1185,1.4876190476190474
1186,1.465054945054945
1187,1.4473260073260072
1188,1.4118681318681316
1189,1.4005860805860806
1190,1.3876923076923076
1191,1.386080586080586
1192,1.3667399267399265
1193,1.3522344322344322
1194,1.3425641025641024
1195,1.3328937728937729
1196,1.3256410256410256
1197,1.3240293040293039
1198,1.3175824175824176
1199,1.318388278388278
1200,1.3248351648351648
1201,1.3506227106227104
1202,1.3522344322344322
1203,1.3876923076923076
1204,1.3989743589743588
1205,1.4207326007326007
1206,1.443296703296703
1207,1.4586080586080585
1208,1.4876190476190474
1209,1.5005128205128204
1210,1.5013186813186812
1211,1.519047619047619
1212,1.527106227106227
1213,1.5238827838827838
1214,1.527106227106227
1215,1.5327472527472525
1216,1.5198534798534797
1217,1.515018315018315
1218,1.4835897435897434
1219,1.4706959706959708
1220,1.443296703296703
1221,1.4295970695970694
1222,1.402197802197802
1223,1.3876923076923076
1224,1.3562637362637362
1225,1.3425641025641024
1226,1.3216117216117216
1227,1.3167765567765568
1228,1.2958241758241758
1229,1.2974358974358975
1230,1.2869597069597067
1231,1.278095238095238
1232,1.2756776556776557
1233,1.2845421245421245
1234,1.2837362637362637
1235,1.2885714285714285
1236,1.2974358974358975
1237,1.2998534798534798
1238,1.2998534798534798
1239,1.2998534798534798
1240,1.3038827838827838
1241,1.323223443223443
1242,1.3248351648351648
1243,1.3272527472527471
1244,1.3433699633699632
1245,1.3627106227106225
1246,1.3675457875457875
1247,1.3917216117216116
1248,1.4005860805860806
1249,1.415091575091575
1250,1.4215384615384614
1251,1.4368498168498167
1252,1.4489377289377288
1253,1.4537728937728938
1254,1.4594139194139193
1255,1.472307692307692
1256,1.465054945054945
1257,1.4537728937728938
1258,1.469084249084249
1259,1.461025641025641
1260,1.4634432234432233
1261,1.4505494505494505
1262,1.452161172161172
1263,1.436043956043956
1264,1.427179487179487
1265,1.419120879120879
1266,1.411062271062271
1267,1.4078388278388276
1268,1.4134798534798534
1269,1.3884981684981683
1270,1.3788278388278385
1271,1.3828571428571428
1272,1.3747985347985345
1273,1.3554578754578752
1274,1.365934065934066
1275,1.353040293040293
1276,1.345787545787546
1277,1.357875457875458
1278,1.3522344322344322
1279,1.3433699633699632
1280,1.3393406593406592
1281,1.3417582417582417
1282,1.3465934065934064
1283,1.3417582417582417
1284,1.340952380952381
1285,1.3401465201465201
1286,1.3304761904761904
1287,1.3264468864468864
1288,1.3167765567765568
1289,1.3095238095238095
1290,1.3054945054945055
1291,1.2869597069597067
1292,1.27003663003663
1293,1.2627838827838826
1294,1.2523076923076923
1295,1.2482783882783883
1296,1.2571428571428571
1297,1.2523076923076923
1298,1.274065934065934
1299,1.274065934065934
1300,1.278095238095238
1301,1.29018315018315
1302,1.31032967032967
1303,1.3345054945054944
1304,1.3353113553113551
1305,1.3506227106227104
1306,1.365934065934066
1307,1.3731868131868132
1308,1.4038095238095236
1309,1.4215384615384614
1310,1.4086446886446886
1311,1.4247619047619047
1312,1.4304029304029304
1313,1.436043956043956
1314,1.4529670329670328
1315,1.4328205128205127
1316,1.4449084249084247
1317,1.448131868131868
1318,1.44007326007326
1319,1.4489377289377288
1320,1.4424908424908425
1321,1.4344322344322344
1322,1.4207326007326007
1323,1.4086446886446886
1324,1.3796336996336995
1325,1.3868864468864468
1326,1.3635164835164835
1327,1.349010989010989
1328,1.349010989010989
1329,1.3393406593406592
1330,1.3272527472527471
1331,1.3280586080586079
1332,1.3393406593406592
1333,1.3336996336996336
1334,1.357875457875458
1335,1.3602930402930402
1336,1.3691575091575092
1337,1.3884981684981683
1338,1.4134798534798534
1339,1.415091575091575
1340,1.4336263736263737
1341,1.4505494505494505
1342,1.443296703296703
1343,1.4578021978021978
1344,1.4594139194139193
1345,1.448131868131868
1346,1.4328205128205127
1347,1.4223443223443224
1348,1.4030036630036629
1349,1.3893040293040293
1350,1.3989743589743588
1351,1.3796336996336995
1352,1.3546520146520145
1353,1.353040293040293
1354,1.3401465201465201
1355,1.344981684981685
1356,1.340952380952381
1357,1.3240293040293039
1358,1.3159706959706958
1359,1.294212454212454
1360,1.2966300366300365
1361,1.2845421245421245
1362,1.2797069597069597
1363,1.2643956043956044
1364,1.2595604395604394
1365,1.2676190476190474
1366,1.27003663003663
1367,1.2756776556776557
1368,1.2797069597069597
1369,1.2764835164835164
1370,1.2797069597069597
1371,1.266007326007326
1372,1.302271062271062
1373,1.3054945054945055
1374,1.3135531135531135
1375,1.3296703296703296
1376,1.3224175824175823
1377,1.3425641025641024
1378,1.3393406593406592
1379,1.3683516483516482
1380,1.3747985347985345
1381,1.3828571428571428
1382,1.3804395604395603
1383,1.3812454212454213
1384,1.3796336996336995
1385,1.3796336996336995
1386,1.3731868131868132
1387,1.3602930402930402
1388,1.3562637362637362
1389,1.349010989010989
1390,1.345787545787546
1391,1.332087912087912
1392,1.3385347985347984
1393,1.3425641025641024
1394,1.3369230769230769
1395,1.3361172161172161
1396,1.344981684981685
1397,1.3417582417582417
1398,1.3441758241758242
1399,1.3465934065934064
1400,1.3401465201465201
1401,1.3264468864468864
1402,1.3216117216117216
1403,1.3304761904761904
1404,1.3216117216117216
1405,1.3199999999999998
1406,1.3159706959706958
1407,1.311135531135531
1408,1.3038827838827838
1409,1.31032967032967
1410,1.31032967032967
1411,1.311135531135531
1412,1.3054945054945055
1413,1.3038827838827838
1414,1.3095238095238095
1415,1.3119413919413918
1416,1.307106227106227
1417,1.315164835164835
1418,1.323223443223443
1419,1.3240293040293039
1420,1.3369230769230769
1421,1.345787545787546
1422,1.344981684981685
1423,1.36996336996337
1424,1.36996336996337
1425,1.3876923076923076
1426,1.3876923076923076
1427,1.3957509157509156
1428,1.3965567765567766
1429,1.4102564102564104
1430,1.4118681318681316
1431,1.427179487179487
1432,1.4247619047619047
1433,1.419120879120879
1434,1.432014652014652
1435,1.4328205128205127
1436,1.439267399267399
1437,1.4328205128205127
1438,1.4223443223443224
1439,1.419120879120879
1440,1.411062271062271
1441,1.3989743589743588
1442,1.3925274725274723
1443,1.39010989010989
1444,1.3828571428571428
1445,1.3594871794871795
1446,1.3546520146520145
1447,1.3312820512820511
1448,1.306300366300366
1449,1.294212454212454
1450,1.286153846153846
1451,1.27003663003663
1452,1.2337728937728938
1453,1.224102564102564
1454,1.2095970695970697
1455,1.1983150183150182
1456,1.195091575091575
1457,1.1926739926739927
1458,1.1717216117216116
1459,1.1693040293040293
1460,1.1709157509157508
1461,1.1821978021978021
1462,1.1902564102564102
1463,1.1934798534798534
1464,1.207985347985348
1465,1.2184615384615383
1466,1.220879120879121
1467,1.2442490842490843
1468,1.2668131868131867
1469,1.2805128205128204
1470,1.294212454212454
1471,1.3095238095238095
1472,1.3264468864468864
1473,1.357875457875458
1474,1.3675457875457875
1475,1.3909157509157508
1476,1.3925274725274723
1477,1.4038095238095236
1478,1.4207326007326007
1479,1.4287912087912087
1480,1.4328205128205127
1481,1.4328205128205127
1482,1.41992673992674
1483,1.4328205128205127
1484,1.4223443223443224
1485,1.4142857142857144
1486,1.3949450549450548
1487,1.378021978021978
1488,1.3643223443223442
1489,1.3401465201465201
1490,1.3353113553113551
1491,1.311135531135531
1492,1.311135531135531
1493,1.307106227106227
1494,1.294212454212454
1495,1.2748717948717947
1496,1.278095238095238
1497,1.2845421245421245
1498,1.274065934065934
1499,1.2837362637362637
1500,1.2829304029304027
1501,1.2966300366300365
1502,1.2789010989010987
1503,1.3014652014652015
1504,1.3079120879120878
1505,1.3240293040293039
1506,1.340952380952381
1507,1.3514285714285712
1508,1.3788278388278385
1509,1.3909157509157508
1510,1.4134798534798534
1511,1.4070329670329669
1512,1.4175091575091574
1513,1.4223443223443224
1514,1.4167032967032966
1515,1.4134798534798534
1516,1.4126739926739926
1517,1.382051282051282
1518,1.402197802197802
1519,1.3989743589743588
1520,1.3796336996336995
1521,1.3465934065934064
1522,1.3385347985347984
1523,1.3312820512820511
1524,1.3167765567765568
1525,1.2926007326007325
1526,1.2772893772893772
1527,1.2635897435897434
1528,1.2498901098901096
1529,1.2506959706959706
1530,1.2458608058608056
1531,1.2418315018315016
1532,1.253113553113553
1533,1.2506959706959706
1534,1.2595604395604394
1535,1.2789010989010987
1536,1.2909890109890108
1537,1.3038827838827838
1538,1.3272527472527471
1539,1.3248351648351648
1540,1.3594871794871795
1541,1.3973626373626373
1542,1.4046153846153846
1543,1.4328205128205127
1544,1.4457142857142857
1545,1.465054945054945
1546,1.469084249084249
1547,1.4835897435897434
1548,1.4843956043956044
1549,1.4819780219780219
1550,1.4578021978021978
1551,1.4755311355311354
1552,1.4529670329670328
1553,1.435238095238095
1554,1.4118681318681316
1555,1.373992673992674
1556,1.36996336996337
1557,1.3554578754578752
1558,1.314358974358974
1559,1.2958241758241758
1560,1.2805128205128204
1561,1.2523076923076923
1562,1.2442490842490843
1563,1.232161172161172
1564,1.2297435897435898
1565,1.2168498168498167
1566,1.2265201465201463
1567,1.2265201465201463
1568,1.2297435897435898
1569,1.249084249084249
1570,1.2668131868131867
1571,1.2877655677655677
1572,1.2909890109890108
1573,1.3336996336996336
1574,1.3393406593406592
1575,1.357069597069597
1576,1.378021978021978
1577,1.3989743589743588
1578,1.398168498168498
1579,1.41992673992674
1580,1.419120879120879
1581,1.4215384615384614
1582,1.419120879120879
1583,1.4158974358974357
1584,1.419120879120879
1585,1.4062271062271061
1586,1.3917216117216116
1587,1.3989743589743588
1588,1.3764102564102563
1589,1.378021978021978
1590,1.3554578754578752
1591,1.3627106227106225
1592,1.344981684981685
1593,1.3401465201465201
1594,1.318388278388278
1595,1.3264468864468864
1596,1.3087179487179488
1597,1.3167765567765568
1598,1.2998534798534798
1599,1.307106227106227
1600,1.314358974358974
1601,1.31032967032967
1602,1.3264468864468864
1603,1.314358974358974
1604,1.3248351648351648
1605,1.3336996336996336
1606,1.3272527472527471
1607,1.3425641025641024
1608,1.345787545787546
1609,1.3586813186813185
1610,1.3594871794871795
1611,1.3586813186813185
1612,1.3764102564102563
1613,1.3884981684981683
1614,1.3764102564102563
1615,1.3909157509157508
1616,1.3828571428571428
1617,1.3965567765567766
1618,1.398168498168498
1619,1.3917216117216116
1620,1.3893040293040293
1621,1.3747985347985345
1622,1.3715750915750915
1623,1.361098901098901
1624,1.3643223443223442
1625,1.361904761904762
1626,1.3441758241758242
1627,1.3417582417582417
1628,1.3328937728937729
1629,1.3272527472527471
1630,1.3473992673992672
1631,1.3369230769230769
1632,1.3336996336996336
1633,1.3473992673992672
1634,1.3465934065934064
1635,1.3522344322344322
1636,1.3747985347985345
1637,1.361904761904762
1638,1.3683516483516482
1639,1.3675457875457875
1640,1.3715750915750915
1641,1.3876923076923076
1642,1.3884981684981683
1643,1.3925274725274723
1644,1.3965567765567766
1645,1.378021978021978
1646,1.3812454212454213
1647,1.3788278388278385
1648,1.357875457875458
1649,1.3594871794871795
1650,1.344981684981685
1651,1.3288644688644689
1652,1.3312820512820511
1653,1.2974358974358975
1654,1.3038827838827838
1655,1.29018315018315
1656,1.2748717948717947
1657,1.27003663003663
1658,1.266007326007326
1659,1.2571428571428571
1660,1.2579487179487179
1661,1.2587545787545786
1662,1.261978021978022
1663,1.2797069597069597
1664,1.2885714285714285
1665,1.2877655677655677
1666,1.311135531135531
1667,1.3216117216117216
1668,1.3353113553113551
1669,1.3594871794871795
1670,1.3772161172161173
1671,1.3844688644688643
1672,1.4030036630036629
1673,1.4175091575091574
1674,1.427179487179487
1675,1.435238095238095
1676,1.427179487179487
1677,1.439267399267399
1678,1.443296703296703
1679,1.452161172161172
1680,1.4295970695970694
1681,1.4304029304029304
1682,1.4255677655677654
1683,1.4167032967032966
1684,1.4167032967032966
1685,1.4013919413919413
1686,1.3973626373626373
1687,1.378021978021978
1688,1.36996336996337
1689,1.3586813186813185
1690,1.3336996336996336
1691,1.3079120879120878
1692,1.2998534798534798
1693,1.2966300366300365
1694,1.2797069597069597
1695,1.2748717948717947
1696,1.2643956043956044
1697,1.2805128205128204
1698,1.2877655677655677
1699,1.2893772893772895
1700,1.3159706959706958
1701,1.314358974358974
1702,1.3393406593406592
1703,1.3312820512820511
1704,1.3393406593406592
1705,1.3554578754578752
1706,1.353846153846154
1707,1.361904761904762
1708,1.3804395604395603
1709,1.378021978021978
1710,1.3965567765567766
1711,1.4094505494505494
1712,1.4183150183150184
1713,1.427985347985348
1714,1.4287912087912087
1715,1.4328205128205127
1716,1.4336263736263737
1717,1.423150183150183
1718,1.4223443223443224
1719,1.4215384615384614
1720,1.4078388278388276
1721,1.3925274725274723
1722,1.3804395604395603
1723,1.3506227106227104
1724,1.3465934065934064
1725,1.344981684981685
1726,1.3328937728937729
1727,1.3248351648351648
1728,1.323223443223443
1729,1.3159706959706958
1730,1.323223443223443
1731,1.3296703296703296
1732,1.3248351648351648
1733,1.3377289377289376
1734,1.3401465201465201
1735,1.3562637362637362
1736,1.353040293040293
1737,1.3683516483516482
1738,1.3707692307692305
1739,1.394139194139194
1740,1.4046153846153846
1741,1.4126739926739926
1742,1.4295970695970694
1743,1.436043956043956
1744,1.439267399267399
1745,1.4465201465201465
1746,1.4626373626373625
1747,1.4706959706959708
1748,1.473113553113553
1749,1.4666666666666666
1750,1.465054945054945
1751,1.452161172161172
1752,1.4376556776556777
1753,1.4287912087912087
1754,1.4223443223443224
1755,1.4102564102564104
1756,1.402197802197802
1757,1.3876923076923076
1758,1.3667399267399265
1759,1.3723809523809523
1760,1.3715750915750915
1761,1.3884981684981683
1762,1.3707692307692305
1763,1.3852747252747253
1764,1.3957509157509156
1765,1.3925274725274723
1766,1.4086446886446886
1767,1.4054212454212454
1768,1.423150183150183
1769,1.427179487179487
1770,1.4384615384615385
1771,1.439267399267399
1772,1.4465201465201465
1773,1.452161172161172
1774,1.464249084249084
1775,1.464249084249084
1776,1.4819780219780219
1777,1.4868131868131869
1778,1.498901098901099
1779,1.506959706959707
1780,1.5198534798534797
1781,1.5093772893772892
1782,1.519047619047619
1783,1.5085714285714285
1784,1.5005128205128204
1785,1.5021245421245422
1786,1.481172161172161
1787,1.4739194139194138
1788,1.4658608058608058
1789,1.4578021978021978
1790,1.4497435897435897
1791,1.443296703296703
1792,1.4247619047619047
1793,1.4118681318681316
1794,1.4086446886446886
1795,1.4086446886446886
1796,1.394139194139194
1797,1.3893040293040293
1798,1.3949450549450548
1799,1.3957509157509156
1800,1.3925274725274723
1801,1.4126739926739926
1802,1.4102564102564104
1803,1.4328205128205127
1804,1.4368498168498167
1805,1.4505494505494505
1806,1.4505494505494505
1807,1.465054945054945
1808,1.477142857142857
1809,1.4803663003663001
1810,1.4932600732600732
1811,1.5093772893772892
1812,1.5263003663003663
1813,1.5343589743589743
1814,1.5464468864468863
1815,1.5464468864468863
1816,1.5440293040293038
1817,1.5375824175824175
1818,1.5424175824175823
1819,1.523076923076923
1820,1.5158241758241757
1821,1.506959706959707
1822,1.4884249084249084
1823,1.476336996336996
1824,1.4578021978021978
1825,1.4457142857142857
1826,1.439267399267399
1827,1.427985347985348
1828,1.423956043956044
1829,1.432014652014652
1830,1.427179487179487
1831,1.4247619047619047
1832,1.423956043956044
1833,1.4408791208791207
1834,1.44007326007326
1835,1.4618315018315018
1836,1.4674725274725273
1837,1.4852014652014651
1838,1.502930402930403
1839,1.5158241758241757
1840,1.5295238095238095
1841,1.5488644688644688
1842,1.581098901098901
1843,1.5956043956043957
1844,1.6358974358974359
1845,1.6471794871794871
1846,1.652014652014652
1847,1.6713553113553112
1848,1.6745787545787545
1849,1.6826373626373625
1850,1.6882783882783883
1851,1.6890842490842488
1852,1.6874725274725275
1853,1.6657142857142855
1854,1.6624908424908424
1855,1.6326739926739926
1856,1.6044688644688643
1857,1.5835164835164834
1858,1.5504761904761903
1859,1.5351648351648353
1860,1.5093772893772892
1861,1.4916483516483514
1862,1.468278388278388
1863,1.44007326007326
1864,1.4247619047619047
1865,1.4094505494505494
1866,1.4046153846153846
1867,1.4005860805860806
1868,1.411062271062271
1869,1.3997802197802196
1870,1.419120879120879
1871,1.4223443223443224
1872,1.4263736263736264
1873,1.435238095238095
1874,1.4457142857142857
1875,1.4424908424908425
1876,1.4513553113553113
1877,1.464249084249084
1878,1.4578021978021978
1879,1.4803663003663001
1880,1.4852014652014651
1881,1.4876190476190474
1882,1.4884249084249084
1883,1.4876190476190474
1884,1.4698901098901098
1885,1.4876190476190474
1886,1.4876190476190474
1887,1.4884249084249084
1888,1.4908424908424909
1889,1.4852014652014651
1890,1.4819780219780219
1891,1.4779487179487178
1892,1.4698901098901098
1893,1.476336996336996
1894,1.46021978021978
1895,1.4618315018315018
1896,1.46021978021978
1897,1.4658608058608058
1898,1.4787545787545788
1899,1.4860073260073259
1900,1.498901098901099
1901,1.4892307692307691
1902,1.5005128205128204
1903,1.502930402930403
1904,1.519047619047619
1905,1.5126007326007325
1906,1.5222710622710622
1907,1.523076923076923
1908,1.5295238095238095
1909,1.5263003663003663
1910,1.5351648351648353
1911,1.5295238095238095
1912,1.5254945054945055
1913,1.5327472527472525
1914,1.5254945054945055
1915,1.5166300366300365
1916,1.506959706959707
1917,1.502930402930403
1918,1.5021245421245422
1919,1.4852014652014651
1920,1.4819780219780219
1921,1.4698901098901098
1922,1.4537728937728938
1923,1.436043956043956
1924,1.4215384615384614
1925,1.4142857142857144
1926,1.4005860805860806
1927,1.4005860805860806
1928,1.382051282051282
1929,1.3965567765567766
1930,1.3917216117216116
1931,1.3965567765567766
1932,1.4078388278388276
1933,1.398168498168498
1934,1.4408791208791207
1935,1.443296703296703
1936,1.469084249084249
1937,1.4819780219780219
1938,1.4980952380952381
1939,1.5126007326007325
1940,1.5198534798534797
1941,1.5327472527472525
1942,1.5456410256410256
1943,1.5657875457875456
1944,1.568205128205128
1945,1.5867399267399267
1946,1.5964102564102562
1947,1.6093040293040293
1948,1.6044688644688643
1949,1.6157509157509158
1950,1.623003663003663
1951,1.6076923076923078
1952,1.5778754578754577
1953,1.5907692307692307
1954,1.5665934065934066
1955,1.5609523809523809
1956,1.531135531135531
1957,1.515018315018315
1958,1.5005128205128204
1959,1.477142857142857
1960,1.4553846153846153
1961,1.4263736263736264
1962,1.4215384615384614
1963,1.4175091575091574
1964,1.3852747252747253
1965,1.4167032967032966
1966,1.4158974358974357
1967,1.4336263736263737
1968,1.4457142857142857
1969,1.4578021978021978
1970,1.472307692307692
1971,1.481172161172161
1972,1.5077655677655677
1973,1.5222710622710622
1974,1.5319413919413918
1975,1.5609523809523809
1976,1.5698168498168497
1977,1.593186813186813
1978,1.606080586080586
1979,1.6133333333333333
1980,1.6205860805860803
1981,1.618974358974359
1982,1.6238095238095238
1983,1.6165567765567763
1984,1.6068864468864468
1985,1.597216117216117
1986,1.6004395604395603
1987,1.585128205128205
1988,1.569010989010989
1989,1.5536996336996336
1990,1.5335531135531135
1991,1.5238827838827838
1992,1.5238827838827838
1993,1.4940659340659341
1994,1.4916483516483514
1995,1.4747252747252748
1996,1.4674725274725273
1997,1.46021978021978
1998,1.4578021978021978
1999,1.4594139194139193
2000,1.46021978021978
2001,1.4674725274725273
2002,1.4674725274725273
2003,1.4795604395604394
2004,1.4795604395604394
2005,1.494871794871795
2006,1.5045421245421244
2007,1.5061538461538462
2008,1.5238827838827838
2009,1.5496703296703296
2010,1.5593406593406594
2011,1.5714285714285714
2012,1.5778754578754577
2013,1.58996336996337
2014,1.5964102564102562
2015,1.6076923076923078
2016,1.6165567765567763
2017,1.6109157509157508
2018,1.585128205128205
2019,1.602051282051282
2020,1.585934065934066
2021,1.5875457875457875
2022,1.5649816849816849
2023,1.5633699633699634
2024,1.531135531135531
2025,1.5327472527472525
2026,1.5287179487179485
2027,1.5263003663003663
2028,1.5279120879120878
2029,1.5238827838827838
2030,1.531135531135531
2031,1.5432234432234433
2032,1.5408058608058606
2033,1.5504761904761903
2034,1.5416117216117216
2035,1.5835164835164834
2036,1.585128205128205
2037,1.598021978021978
2038,1.623003663003663
2039,1.6294505494505493
2040,1.6463736263736264
2041,1.6487912087912087
2042,1.6552380952380952
2043,1.6528205128205127
2044,1.6536263736263734
2045,1.6568498168498167
2046,1.6512087912087912
2047,1.652014652014652
2048,1.6334798534798534
2049,1.631062271062271
2050,1.6157509157509158
2051,1.6093040293040293
2052,1.5883516483516482
2053,1.568205128205128
2054,1.5528937728937728
2055,1.5206593406593405
2056,1.5085714285714285
2057,1.49003663003663
2058,1.476336996336996
2059,1.473113553113553
2060,1.4513553113553113
2061,1.4529670329670328
2062,1.4529670329670328
2063,1.4658608058608058
2064,1.4739194139194138
2065,1.476336996336996
2066,1.4972893772893772
2067,1.4956776556776554
2068,1.5117948717948717
2069,1.5295238095238095
2070,1.5585347985347986
2071,1.5665934065934066
2072,1.5835164835164834
2073,1.589157509157509
2074,1.6238095238095238
2075,1.6294505494505493
2076,1.6358974358974359
2077,1.6616849816849815
2078,1.6592673992673992
2079,1.6810256410256408
2080,1.6834432234432235
2081,1.6979487179487178
2082,1.6955311355311355
2083,1.6955311355311355
2084,1.6802197802197802
2085,1.6874725274725275
2086,1.6850549450549448
2087,1.6657142857142855
2088,1.6641025641025642
2089,1.6326739926739926
2090,1.627032967032967
2091,1.6084981684981683
2092,1.5947985347985347
2093,1.5762637362637362
2094,1.5665934065934066
2095,1.5528937728937728
2096,1.5295238095238095
2097,1.5142124542124542
2098,1.5367765567765566
2099,1.5359706959706958
2100,1.5383882783882783
2101,1.5335531135531135
2102,1.5609523809523809
2103,1.5754578754578754
2104,1.5907692307692307
2105,1.6157509157509158
2106,1.622197802197802
2107,1.6423443223443221
2108,1.6624908424908424
2109,1.6600732600732602
2110,1.6826373626373625
2111,1.6874725274725275
2112,1.6995604395604396
2113,1.7043956043956043
2114,1.705201465201465
2115,1.7060073260073259
2116,1.705201465201465
2117,1.6890842490842488
2118,1.6834432234432235
2119,1.6778021978021977
2120,1.6641025641025642
2121,1.6423443223443221
2122,1.6213919413919413
2123,1.614139194139194
2124,1.6076923076923078
2125,1.5827106227106227
2126,1.5738461538461537
2127,1.5496703296703296
2128,1.5553113553113553
2129,1.5399999999999998
2130,1.531135531135531
2131,1.5359706959706958
2132,1.5367765567765566
2133,1.5472527472527473
2134,1.5464468864468863
2135,1.5536996336996336
2136,1.568205128205128
2137,1.58996336996337
2138,1.6044688644688643
2139,1.6197802197802198
2140,1.6375091575091574
2141,1.6632967032967032
2142,1.6761904761904762
2143,1.6761904761904762
2144,1.6915018315018315
2145,1.7084249084249084
2146,1.7148717948717949
2147,1.7027838827838826
2148,1.7100366300366299
2149,1.7205128205128206
2150,1.705201465201465
2151,1.7100366300366299
2152,1.705201465201465
2153,1.701172161172161
2154,1.6826373626373625
2155,1.6842490842490843
2156,1.6600732600732602
2157,1.6673260073260072
2158,1.6367032967032966
2159,1.6326739926739926
2160,1.622197802197802
2161,1.6004395604395603
2162,1.6125274725274723
2163,1.61010989010989
2164,1.58996336996337
2165,1.593186813186813
2166,1.593186813186813
2167,1.5907692307692307
2168,1.5996336996336997
2169,1.6149450549450548
2170,1.6157509157509158
2171,1.63025641025641
2172,1.6447619047619046
2173,1.6375091575091574
2174,1.647985347985348
2175,1.6592673992673992
2176,1.6632967032967032
2177,1.6552380952380952
2178,1.6608791208791207
2179,1.6673260073260072
2180,1.6729670329670328
2181,1.6673260073260072
2182,1.6641025641025642
2183,1.6713553113553112
2184,1.6576556776556775
2185,1.6608791208791207
2186,1.635091575091575
2187,1.6278388278388278
2188,1.622197802197802
2189,1.6028571428571428
2190,1.589157509157509
2191,1.581098901098901
2192,1.5649816849816849
2193,1.5577289377289376
2194,1.5416117216117216
2195,1.5456410256410256
2196,1.5383882783882783
2197,1.5448351648351648
2198,1.5657875457875456
2199,1.5617582417582416
2200,1.568205128205128
2201,1.585128205128205
2202,1.597216117216117
2203,1.6173626373626373
2204,1.635091575091575
2205,1.652014652014652
2206,1.6753846153846153
2207,1.6931135531135528
2208,1.7124542124542124
2209,1.7156776556776556
2210,1.7463003663003662
2211,1.7583882783882783
2212,1.7608058608058608
2213,1.7769230769230768
2214,1.776117216117216
2215,1.784981684981685
2216,1.7728937728937728
2217,1.7656410256410255
2218,1.76
2219,1.743882783882784
2220,1.7382417582417582
2221,1.7164835164835164
2222,1.701172161172161
2223,1.6858608058608058
2224,1.6552380952380952
2225,1.635091575091575
2226,1.6197802197802198
2227,1.6028571428571428
2228,1.5802930402930402
2229,1.5867399267399267
2230,1.5609523809523809
2231,1.5561172161172159
2232,1.5561172161172159
2233,1.564175824175824
2234,1.573040293040293
2235,1.5827106227106227
2236,1.597216117216117
2237,1.6068864468864468
2238,1.6173626373626373
2239,1.6326739926739926
2240,1.6431501831501831
2241,1.6592673992673992
2242,1.6576556776556775
2243,1.6624908424908424
2244,1.6794139194139193
2245,1.6834432234432235
2246,1.6947252747252746
2247,1.6906959706959706
2248,1.6955311355311355
2249,1.6890842490842488
2250,1.6850549450549448
2251,1.6802197802197802
2252,1.6600732600732602
2253,1.6600732600732602
2254,1.6399267399267399
2255,1.635091575091575
2256,1.626227106227106
2257,1.6028571428571428
2258,1.6109157509157508
2259,1.6044688644688643
2260,1.593992673992674
2261,1.5947985347985347
2262,1.601245421245421
2263,1.6133333333333333
2264,1.606080586080586
2265,1.6076923076923078
2266,1.622197802197802
2267,1.6254212454212453
2268,1.63025641025641
2269,1.6342857142857141
2270,1.6536263736263734
2271,1.6576556776556775
2272,1.6697435897435897
2273,1.6842490842490843
2274,1.6947252747252746
2275,1.7043956043956043
2276,1.7084249084249084
2277,1.7253479853479852
2278,1.7342124542124542
2279,1.7253479853479852
2280,1.7253479853479852
2281,1.722930402930403
2282,1.7164835164835164
2283,1.709230769230769
2284,1.7148717948717949
2285,1.6995604395604396
2286,1.6963369963369963
2287,1.6882783882783883
2288,1.6818315018315018
2289,1.6455677655677654
2290,1.6528205128205127
2291,1.6358974358974359
2292,1.6157509157509158
2293,1.6109157509157508
2294,1.6149450549450548
2295,1.5794871794871794
2296,1.598021978021978
2297,1.5915750915750915
2298,1.598021978021978
2299,1.606080586080586
2300,1.618168498168498
2301,1.6254212454212453
2302,1.6431501831501831
2303,1.6649084249084247
2304,1.6810256410256408
2305,1.6786080586080585
2306,1.6882783882783883
2307,1.7213186813186812
2308,1.7205128205128206
2309,1.7156776556776556
2310,1.7293772893772892
2311,1.7366300366300367
2312,1.743076923076923
2313,1.7422710622710622
2314,1.7326007326007327
2315,1.7454945054945052
2316,1.7487179487179487
2317,1.735018315018315
2318,1.7277655677655677
2319,1.7108424908424908
2320,1.7035897435897436
2321,1.6874725274725275
2322,1.6600732600732602
2323,1.6600732600732602
2324,1.6399267399267399
2325,1.6173626373626373
2326,1.6205860805860803
2327,1.598021978021978
2328,1.5956043956043957
2329,1.5754578754578754
2330,1.589157509157509
2331,1.5923809523809522
2332,1.585934065934066
2333,1.5923809523809522
2334,1.593992673992674
2335,1.61010989010989
2336,1.6133333333333333
2337,1.627032967032967
2338,1.6471794871794871
2339,1.6536263736263734
2340,1.6729670329670328
2341,1.6931135531135528
2342,1.6995604395604396
2343,1.73018315018315
2344,1.735018315018315
2345,1.730989010989011
2346,1.7543589743589743
2347,1.7503296703296702
2348,1.7535531135531133
2349,1.7608058608058608
2350,1.7624175824175823
2351,1.7575824175824175
2352,1.7664468864468863
2353,1.755164835164835
2354,1.7366300366300367
2355,1.7374358974358972
2356,1.7132600732600731
2357,1.7084249084249084
2358,1.6955311355311355
2359,1.6850549450549448
2360,1.6649084249084247
2361,1.6552380952380952
2362,1.6552380952380952
2363,1.652014652014652
2364,1.6641025641025642
2365,1.6697435897435897
2366,1.6665201465201465
2367,1.6939194139194138
2368,1.7164835164835164
2369,1.730989010989011
2370,1.7374358974358972
2371,1.7454945054945052
2372,1.7575824175824175
2373,1.764029304029304
2374,1.7688644688644688
2375,1.7745054945054943
2376,1.7785347985347983
2377,1.7793406593406593
2378,1.784175824175824
2379,1.7825641025641024
2380,1.7696703296703296
2381,1.755970695970696
2382,1.76
2383,1.755164835164835
2384,1.743076923076923
2385,1.7293772893772892
2386,1.730989010989011
2387,1.7084249084249084
2388,1.7068131868131868
2389,1.6810256410256408
2390,1.6769963369963368
2391,1.6592673992673992
2392,1.6367032967032966
2393,1.6149450549450548
2394,1.6076923076923078
2395,1.598021978021978
2396,1.5923809523809522
2397,1.581098901098901
2398,1.58996336996337
2399,1.5907692307692307
2400,1.598021978021978
2401,1.6028571428571428
2402,1.614139194139194
2403,1.6367032967032966
2404,1.6463736263736264
2405,1.6745787545787545
2406,1.6963369963369963
2407,1.7068131868131868
2408,1.726959706959707
2409,1.7454945054945052
2410,1.772087912087912
2411,1.7793406593406593
2412,1.7914285714285714
2413,1.7994871794871794
2414,1.8059340659340657
2415,1.7922344322344321
2416,1.793040293040293
2417,1.7793406593406593
2418,1.7696703296703296
2419,1.7583882783882783
2420,1.7358241758241757
2421,1.7326007326007327
2422,1.7116483516483516
2423,1.697142857142857
2424,1.6761904761904762
2425,1.6584615384615384
2426,1.6326739926739926
2427,1.63025641025641
2428,1.6205860805860803
2429,1.61010989010989
2430,1.6117216117216118
2431,1.6173626373626373
2432,1.6213919413919413
2433,1.6439560439560439
2434,1.6713553113553112
2435,1.6834432234432235
2436,1.709230769230769
2437,1.726153846153846
2438,1.743076923076923
2439,1.7342124542124542
2440,1.7608058608058608
2441,1.776117216117216
2442,1.7938461538461536
2443,1.8002930402930402
2444,1.8115750915750914
2445,1.8083516483516484
2446,1.8131868131868132
2447,1.8115750915750914
2448,1.7994871794871794
2449,1.8043223443223442
2450,1.7825641025641024
2451,1.7777289377289376
2452,1.768058608058608
2453,1.763223443223443
2454,1.7503296703296702
2455,1.7358241758241757
2456,1.7245421245421246
2457,1.7084249084249084
2458,1.6866666666666665
2459,1.6745787545787545
2460,1.6600732600732602
2461,1.626227106227106
2462,1.6391208791208791
2463,1.635091575091575
2464,1.622197802197802
2465,1.622197802197802
2466,1.6238095238095238
2467,1.6367032967032966
2468,1.6544322344322344
2469,1.6649084249084247
2470,1.6842490842490843
2471,1.7084249084249084
2472,1.7132600732600731
2473,1.730989010989011
2474,1.743076923076923
2475,1.7616117216117215
2476,1.7616117216117215
2477,1.7809523809523808
2478,1.7906227106227104
2479,1.7873992673992674
2480,1.7978754578754577
2481,1.8043223443223442
2482,1.8067399267399267
2483,1.8051282051282052
2484,1.8019047619047617
2485,1.7978754578754577
2486,1.793040293040293
2487,1.7857875457875456
2488,1.7656410256410255
2489,1.7608058608058608
2490,1.755164835164835
2491,1.7495238095238093
2492,1.7535531135531133
2493,1.7495238095238093
2494,1.7527472527472527
2495,1.7374358974358972
2496,1.7358241758241757
2497,1.730989010989011
2498,1.735018315018315
2499,1.7366300366300367
2500,1.739047619047619
2501,1.7366300366300367
2502,1.7358241758241757
2503,1.743882783882784
2504,1.7583882783882783
2505,1.763223443223443
2506,1.7728937728937728
2507,1.7728937728937728
2508,1.78014652014652
2509,1.7817582417582416
2510,1.793040293040293
2511,1.7857875457875456
2512,1.789010989010989
2513,1.7906227106227104
2514,1.7857875457875456
2515,1.7938461538461536
2516,1.7753113553113553
2517,1.7793406593406593
2518,1.767252747252747
2519,1.763223443223443
2520,1.743882783882784
2521,1.743076923076923
2522,1.7237362637362637
2523,1.7084249084249084
2524,1.6987545787545786
2525,1.6882783882783883
2526,1.6826373626373625
2527,1.6649084249084247
2528,1.6713553113553112
2529,1.6632967032967032
2530,1.6649084249084247
2531,1.6826373626373625
2532,1.6931135531135528
2533,1.7084249084249084
2534,1.718095238095238
2535,1.7398534798534797
2536,1.755970695970696
2537,1.7688644688644688
2538,1.7946520146520146
2539,1.8115750915750914
2540,1.8212454212454212
2541,1.8268864468864467
2542,1.8373626373626373
2543,1.8518681318681318
2544,1.8639560439560439
2545,1.8599267399267398
2546,1.8712087912087911
2547,1.8639560439560439
2548,1.8784615384615382
2549,1.8663736263736261
2550,1.8567032967032966
2551,1.8486446886446886
2552,1.8405860805860805
2553,1.822051282051282
2554,1.8115750915750914
2555,1.7970695970695971
2556,1.78014652014652
2557,1.7616117216117215
2558,1.743076923076923
2559,1.7164835164835164
2560,1.709230769230769
2561,1.6963369963369963
2562,1.6915018315018315
2563,1.7060073260073259
2564,1.7164835164835164
2565,1.7172893772893771
2566,1.7317948717948717
2567,1.7495238095238093
2568,1.7624175824175823
2569,1.7648351648351648
2570,1.772087912087912
2571,1.7938461538461536
2572,1.7898168498168496
2573,1.789010989010989
2574,1.8002930402930402
2575,1.8067399267399267
2576,1.8156043956043955
2577,1.8172161172161172
2578,1.8212454212454212
2579,1.8172161172161172
2580,1.8212454212454212
2581,1.8268864468864467
2582,1.8164102564102564
2583,1.8147985347985347
2584,1.8156043956043955
2585,1.8010989010989011
2586,1.8019047619047617
2587,1.7938461538461536
2588,1.7857875457875456
2589,1.768058608058608
2590,1.7656410256410255
2591,1.7495238095238093
2592,1.7422710622710622
2593,1.7446886446886447
2594,1.7285714285714286
2595,1.7245421245421246
2596,1.7213186813186812
2597,1.722124542124542
2598,1.7317948717948717
2599,1.747106227106227
2600,1.751941391941392
2601,1.7608058608058608
2602,1.772087912087912
2603,1.776117216117216
2604,1.8083516483516484
2605,1.8293040293040292
2606,1.8389743589743588
2607,1.8470329670329668
2608,1.8655677655677656
2609,1.8792673992673992
2610,1.8857142857142857
2611,1.8913553113553112
2612,1.896996336996337
2613,1.8994139194139192
2614,1.8937728937728937
2615,1.8961904761904762
2616,1.8937728937728937
2617,1.888937728937729
2618,1.8752380952380951
2619,1.8679853479853479
2620,1.8534798534798536
2621,1.8518681318681318
2622,1.8188278388278387
2623,1.8035164835164834
2624,1.7906227106227104
2625,1.7728937728937728
2626,1.7567765567765568
2627,1.7358241758241757
2628,1.7334065934065932
2629,1.7132600732600731
2630,1.7100366300366299
2631,1.6955311355311355
2632,1.6947252747252746
2633,1.6963369963369963
2634,1.7003663003663003
2635,1.6906959706959706
2636,1.7084249084249084
2637,1.718095238095238
2638,1.7334065934065932
2639,1.743882783882784
2640,1.7567765567765568
2641,1.7753113553113553
2642,1.7793406593406593
2643,1.7970695970695971
2644,1.8059340659340657
2645,1.8115750915750914
2646,1.8164102564102564
2647,1.8180219780219777
2648,1.8236630036630035
2649,1.8284981684981685
2650,1.8188278388278387
2651,1.8180219780219777
2652,1.8172161172161172
2653,1.8139926739926737
2654,1.8083516483516484
2655,1.7978754578754577
2656,1.7954578754578754
2657,1.7857875457875456
2658,1.78014652014652
2659,1.7865934065934064
2660,1.7728937728937728
2661,1.7664468864468863
2662,1.7648351648351648
2663,1.7688644688644688
2664,1.768058608058608
2665,1.772087912087912
2666,1.7777289377289376
2667,1.784175824175824
2668,1.7745054945054943
2669,1.8019047619047617
2670,1.7882051282051281
2671,1.8019047619047617
2672,1.8293040293040292
2673,1.8373626373626373
2674,1.8413919413919413
2675,1.8470329670329668
2676,1.8607326007326006
2677,1.8599267399267398
2678,1.8615384615384616
2679,1.8712087912087911
2680,1.8687912087912089
2681,1.8647619047619046
2682,1.858315018315018
2683,1.8623443223443221
2684,1.8494505494505495
2685,1.8333333333333333
2686,1.8204395604395605
2687,1.8107692307692307
2688,1.7954578754578754
2689,1.784175824175824
2690,1.78014652014652
2691,1.764029304029304
2692,1.7326007326007327
2693,1.7317948717948717
2694,1.7358241758241757
2695,1.7317948717948717
2696,1.7237362637362637
2697,1.7253479853479852
2698,1.7205128205128206
2699,1.7293772893772892
2700,1.7454945054945052
2701,1.747912087912088
2702,1.755970695970696
2703,1.7736996336996336
2704,1.7817582417582416
2705,1.8019047619047617
2706,1.8035164835164834
2707,1.8204395604395605
2708,1.83010989010989
2709,1.8357509157509158
2710,1.8518681318681318
2711,1.8655677655677656
2712,1.876043956043956
2713,1.8905494505494504
2714,1.9026373626373625
2715,1.909084249084249
2716,1.9106959706959705
2717,1.9203663003663003
2718,1.9195604395604395
2719,1.9018315018315017
2720,1.8986080586080585
2721,1.8945787545787545
2722,1.8744322344322342
2723,1.8712087912087911
2724,1.8510622710622708
2725,1.8405860805860805
2726,1.8228571428571427
2727,1.8164102564102564
2728,1.8059340659340657
2729,1.7865934065934064
2730,1.7704761904761903
2731,1.7696703296703296
2732,1.763223443223443
2733,1.7664468864468863
2734,1.768058608058608
2735,1.7648351648351648
2736,1.763223443223443
2737,1.763223443223443
2738,1.7664468864468863
2739,1.7753113553113553
2740,1.7873992673992674
2741,1.8091575091575092
2742,1.8317216117216117
2743,1.8349450549450548
2744,1.8567032967032966
2745,1.8728205128205129
2746,1.8897435897435897
2747,1.888937728937729
2748,1.8994139194139192
2749,1.9018315018315017
2750,1.8961904761904762
2751,1.896996336996337
2752,1.892161172161172
2753,1.888131868131868
2754,1.8768498168498169
2755,1.8728205128205129
2756,1.8671794871794871
2757,1.85025641025641
2758,1.8333333333333333
2759,1.8325274725274725
2760,1.8228571428571427
2761,1.8035164835164834
2762,1.8115750915750914
2763,1.7882051282051281
2764,1.7817582417582416
2765,1.7817582417582416
2766,1.7817582417582416
2767,1.7825641025641024
2768,1.7825641025641024
2769,1.784175824175824
2770,1.7865934065934064
2771,1.8019047619047617
2772,1.8123809523809524
2773,1.8131868131868132
2774,1.8309157509157508
2775,1.8373626373626373
2776,1.8494505494505495
2777,1.8526739926739926
2778,1.858315018315018
2779,1.8567032967032966
2780,1.8575091575091576
2781,1.8550915750915749
2782,1.8430036630036628
2783,1.842197802197802
2784,1.8365567765567765
2785,1.8349450549450548
2786,1.826080586080586
2787,1.8139926739926737
2788,1.7978754578754577
2789,1.7938461538461536
2790,1.7954578754578754
2791,1.7769230769230768
2792,1.7696703296703296
2793,1.7543589743589743
2794,1.751135531135531
2795,1.7503296703296702
2796,1.7583882783882783
2797,1.7616117216117215
2798,1.755970695970696
2799,1.7664468864468863
2800,1.7624175824175823
2801,1.7825641025641024
2802,1.7906227106227104
2803,1.7986813186813186
2804,1.8196336996336995
2805,1.8236630036630035
2806,1.8365567765567765
2807,1.8494505494505495
2808,1.8623443223443221
2809,1.8768498168498169
2810,1.8865201465201464
2811,1.8897435897435897
2812,1.8945787545787545
2813,1.9002197802197802
2814,1.8953846153846152
2815,1.8994139194139192
2816,1.8832967032967032
2817,1.88007326007326
2818,1.8776556776556776
2819,1.8623443223443221
2820,1.8534798534798536
2821,1.842197802197802
2822,1.8357509157509158
2823,1.8276923076923075
2824,1.826080586080586
2825,1.8276923076923075
2826,1.8164102564102564
2827,1.8131868131868132
2828,1.8002930402930402
2829,1.7986813186813186
2830,1.8075457875457874
2831,1.7962637362637361
2832,1.7954578754578754
2833,1.793040293040293
2834,1.7946520146520146
2835,1.8043223443223442
2836,1.8139926739926737
2837,1.8172161172161172
2838,1.8172161172161172
2839,1.834139194139194
2840,1.8405860805860805
2841,1.8454212454212455
2842,1.8518681318681318
2843,1.8639560439560439
2844,1.8567032967032966
2845,1.8663736263736261
2846,1.8663736263736261
2847,1.8510622710622708
2848,1.8534798534798536
2849,1.8446153846153845
2850,1.8373626373626373
2851,1.8293040293040292
2852,1.8115750915750914
2853,1.8212454212454212
2854,1.7978754578754577
2855,1.7809523809523808
2856,1.772087912087912
2857,1.7624175824175823
2858,1.747912087912088
2859,1.7374358974358972
2860,1.7406593406593407
2861,1.7398534798534797
2862,1.7414652014652012
2863,1.7454945054945052
2864,1.751941391941392
2865,1.7575824175824175
2866,1.7664468864468863
2867,1.7825641025641024
2868,1.7994871794871794
2869,1.8123809523809524
2870,1.8349450549450548
2871,1.846227106227106
2872,1.876043956043956
2873,1.8953846153846152
2874,1.9187545787545786
2875,1.9372893772893773
2876,1.9493772893772894
2877,1.9654945054945054
2878,1.971135531135531
2879,1.9727472527472527
2880,1.9816117216117215
2881,1.9759706959706957
2882,1.9727472527472527
2883,1.963076923076923
2884,1.9687179487179487
2885,1.9453479853479854
2886,1.938095238095238
2887,1.9155311355311353
2888,1.8994139194139192
2889,1.884102564102564
2890,1.8558974358974358
2891,1.83010989010989
2892,1.826080586080586
2893,1.7962637362637361
2894,1.7745054945054943
2895,1.751135531135531
2896,1.7463003663003662
2897,1.735018315018315
2898,1.7285714285714286
2899,1.7382417582417582
2900,1.735018315018315
2901,1.7398534798534797
2902,1.7503296703296702
2903,1.7624175824175823
2904,1.784981684981685
2905,1.7906227106227104
2906,1.7962637362637361
2907,1.8131868131868132
2908,1.8284981684981685
2909,1.834139194139194
2910,1.8510622710622708
2911,1.8647619047619046
2912,1.8639560439560439
2913,1.8655677655677656
2914,1.8744322344322342
2915,1.8599267399267398
2916,1.8526739926739926
2917,1.846227106227106
2918,1.8430036630036628
2919,1.8365567765567765
2920,1.8325274725274725
2921,1.8212454212454212
2922,1.8091575091575092
2923,1.8027106227106227
2924,1.7906227106227104
2925,1.764029304029304
2926,1.7664468864468863
2927,1.7648351648351648
2928,1.7543589743589743
2929,1.747106227106227
2930,1.743882783882784
2931,1.7583882783882783
2932,1.7704761904761903
2933,1.7648351648351648
2934,1.7865934065934064
2935,1.7962637362637361
2936,1.8123809523809524
2937,1.834139194139194
2938,1.8389743589743588
2939,1.8558974358974358
2940,1.8607326007326006
2941,1.8776556776556776
2942,1.884102564102564
2943,1.8937728937728937
2944,1.8897435897435897
2945,1.8961904761904762
2946,1.9066666666666665
2947,1.9115018315018313
2948,1.9066666666666665
2949,1.9187545787545786
2950,1.9163369963369963
2951,1.917948717948718
2952,1.90989010989011
2953,1.9106959706959705
2954,1.8937728937728937
2955,1.8873260073260072
2956,1.858315018315018
2957,1.8639560439560439
2958,1.8397802197802198
2959,1.8115750915750914
2960,1.8180219780219777
2961,1.7954578754578754
2962,1.784981684981685
2963,1.7793406593406593
2964,1.7825641025641024
2965,1.776117216117216
2966,1.768058608058608
2967,1.7793406593406593
2968,1.7777289377289376
2969,1.7809523809523808
2970,1.7970695970695971
2971,1.8051282051282052
2972,1.8091575091575092
2973,1.8156043956043955
2974,1.8284981684981685
2975,1.8405860805860805
2976,1.8470329670329668
2977,1.8567032967032966
2978,1.859120879120879
2979,1.8736263736263736
2980,1.8784615384615382
2981,1.876043956043956
2982,1.8695970695970696
2983,1.863150183150183
2984,1.854285714285714
2985,1.85025641025641
2986,1.8446153846153845
2987,1.8228571428571427
2988,1.8075457875457874
2989,1.7954578754578754
2990,1.7865934065934064
2991,1.7809523809523808
2992,1.7745054945054943
2993,1.7688644688644688
2994,1.7712820512820513
2995,1.751135531135531
2996,1.7696703296703296
2997,1.7616117216117215
2998,1.7696703296703296
2999,1.7777289377289376
3000,1.7809523809523808
3001,1.7882051282051281
3002,1.8075457875457874
3003,1.8212454212454212
3004,1.8236630036630035
3005,1.838168498168498
3006,1.8526739926739926
3007,1.8518681318681318
3008,1.872014652014652
3009,1.884102564102564
3010,1.8913553113553112
3011,1.896996336996337
3012,1.8961904761904762
3013,1.8953846153846152
3014,1.9002197802197802
3015,1.8994139194139192
3016,1.905054945054945
3017,1.8978021978021977
3018,1.8945787545787545
3019,1.8752380952380951
3020,1.8736263736263736
3021,1.8704029304029302
3022,1.8567032967032966
3023,1.85025641025641
3024,1.8446153846153845
3025,1.842197802197802
3026,1.8365567765567765
3027,1.8244688644688645
3028,1.8180219780219777
3029,1.8147985347985347
3030,1.8147985347985347
3031,1.8228571428571427
3032,1.8051282051282052
3033,1.8147985347985347
3034,1.8131868131868132
3035,1.8196336996336995
3036,1.8196336996336995
3037,1.8325274725274725
3038,1.826080586080586
3039,1.8284981684981685
3040,1.8373626373626373
3041,1.8373626373626373
3042,1.8446153846153845
3043,1.8405860805860805
3044,1.8309157509157508
3045,1.822051282051282
3046,1.8365567765567765
3047,1.8244688644688645
3048,1.8196336996336995
3049,1.7978754578754577
3050,1.8010989010989011
3051,1.7938461538461536
3052,1.7857875457875456
3053,1.7728937728937728
3054,1.7583882783882783
3055,1.7616117216117215
3056,1.7454945054945052
3057,1.7342124542124542
3058,1.7358241758241757
3059,1.726153846153846
3060,1.726959706959707
3061,1.722930402930403
3062,1.7358241758241757
3063,1.7342124542124542
3064,1.747106227106227
3065,1.7608058608058608
3066,1.7656410256410255
3067,1.7954578754578754
3068,1.8010989010989011
3069,1.8139926739926737
3070,1.8276923076923075
3071,1.8510622710622708
3072,1.8712087912087911
3073,1.888937728937729
3074,1.8897435897435897
3075,1.9018315018315017
3076,1.9106959706959705
3077,1.9147252747252745
3078,1.9235897435897436
3079,1.921172161172161
3080,1.9163369963369963
3081,1.926007326007326
3082,1.913113553113553
3083,1.9115018315018313
3084,1.8937728937728937
3085,1.8824908424908424
3086,1.8567032967032966
3087,1.8430036630036628
3088,1.834139194139194
3089,1.8123809523809524
3090,1.8019047619047617
3091,1.7745054945054943
3092,1.7664468864468863
3093,1.7535531135531133
3094,1.7358241758241757
3095,1.7277655677655677
3096,1.722124542124542
3097,1.722124542124542
3098,1.7197069597069596
3099,1.7205128205128206
3100,1.7382417582417582
3101,1.6995604395604396
3102,1.7463003663003662
3103,1.764029304029304
3104,1.7704761904761903
3105,1.7882051282051281
3106,1.7994871794871794
3107,1.8180219780219777
3108,1.83010989010989
3109,1.8430036630036628
3110,1.8486446886446886
3111,1.8752380952380951
3112,1.876043956043956
3113,1.884908424908425
3114,1.884908424908425
3115,1.884908424908425
3116,1.8832967032967032
3117,1.888937728937729
3118,1.884102564102564
3119,1.8671794871794871
3120,1.876043956043956
3121,1.858315018315018
3122,1.838168498168498
3123,1.8228571428571427
3124,1.8172161172161172
3125,1.8027106227106227
3126,1.7946520146520146
3127,1.7769230769230768
3128,1.78014652014652
3129,1.7712820512820513
3130,1.7664468864468863
3131,1.7825641025641024
3132,1.7809523809523808
3133,1.784175824175824
3134,1.7954578754578754
3135,1.8115750915750914
3136,1.8317216117216117
3137,1.8389743589743588
3138,1.8639560439560439
3139,1.884102564102564
3140,1.8978021978021977
3141,1.9042490842490842
3142,1.90989010989011
3143,1.9195604395604395
3144,1.917142857142857
3145,1.917142857142857
3146,1.9082783882783882
3147,1.9074725274725273
3148,1.8994139194139192
3149,1.8824908424908424
3150,1.876043956043956
3151,1.8567032967032966
3152,1.846227106227106
3153,1.8317216117216117
3154,1.8083516483516484
3155,1.7970695970695971
3156,1.772087912087912
3157,1.7535531135531133
3158,1.7374358974358972
3159,1.7253479853479852
3160,1.7132600732600731
3161,1.6963369963369963
3162,1.6898901098901098
3163,1.6866666666666665
3164,1.6786080586080585
3165,1.6890842490842488
3166,1.6939194139194138
3167,1.6987545787545786
3168,1.7084249084249084
3169,1.7124542124542124
3170,1.7317948717948717
3171,1.7503296703296702
3172,1.7704761904761903
3173,1.7978754578754577
3174,1.8107692307692307
3175,1.826080586080586
3176,1.8389743589743588
3177,1.8567032967032966
3178,1.8623443223443221
3179,1.8752380952380951
3180,1.8816849816849817
3181,1.884102564102564
3182,1.8832967032967032
3183,1.8816849816849817
3184,1.8695970695970696
3185,1.8647619047619046
3186,1.854285714285714
3187,1.8430036630036628
3188,1.8268864468864467
3189,1.8236630036630035
3190,1.8139926739926737
3191,1.8043223443223442
3192,1.7914285714285714
3193,1.789010989010989
3194,1.7712820512820513
3195,1.76
3196,1.7583882783882783
3197,1.7696703296703296
3198,1.7777289377289376
3199,1.7793406593406593
3200,1.7914285714285714
3201,1.784981684981685
3202,1.8035164835164834
3203,1.8075457875457874
3204,1.8268864468864467
3205,1.8276923076923075
3206,1.8357509157509158
3207,1.8365567765567765
3208,1.8486446886446886
3209,1.8486446886446886
3210,1.8518681318681318
3211,1.8534798534798536
3212,1.8470329670329668
3213,1.8389743589743588
3214,1.8454212454212455
3215,1.8373626373626373
3216,1.8317216117216117
3217,1.8333333333333333
3218,1.8172161172161172
3219,1.8107692307692307
3220,1.8035164835164834
3221,1.7986813186813186
3222,1.784175824175824
3223,1.7712820512820513
3224,1.7583882783882783
3225,1.7583882783882783
3226,1.7463003663003662
3227,1.718095238095238
3228,1.7197069597069596
3229,1.7148717948717949
3230,1.7197069597069596
3231,1.726959706959707
3232,1.722124542124542
3233,1.709230769230769
3234,1.7027838827838826
3235,1.7132600732600731
3236,1.7334065934065932
3237,1.7277655677655677
3238,1.7503296703296702
3239,1.755164835164835
3240,1.763223443223443
3241,1.784175824175824
3242,1.7922344322344321
3243,1.8075457875457874
3244,1.8196336996336995
3245,1.8349450549450548
3246,1.8486446886446886
3247,1.8430036630036628
3248,1.8526739926739926
3249,1.8454212454212455
3250,1.846227106227106
3251,1.8325274725274725
3252,1.8357509157509158
3253,1.826080586080586
3254,1.8019047619047617
3255,1.7994871794871794
3256,1.7736996336996336
3257,1.7728937728937728
3258,1.7616117216117215
3259,1.7454945054945052
3260,1.726959706959707
3261,1.7253479853479852
3262,1.7172893772893771
3263,1.7124542124542124
3264,1.722930402930403
3265,1.7205128205128206
3266,1.7293772893772892
3267,1.7334065934065932
3268,1.7454945054945052
3269,1.759194139194139
3270,1.7777289377289376
3271,1.7954578754578754
3272,1.7994871794871794
3273,1.8115750915750914
3274,1.8172161172161172
3275,1.8244688644688645
3276,1.8317216117216117
3277,1.822051282051282
3278,1.8236630036630035
3279,1.8357509157509158
3280,1.8236630036630035
3281,1.8268864468864467
3282,1.8309157509157508
3283,1.8276923076923075
3284,1.8091575091575092
3285,1.8075457875457874
3286,1.7938461538461536
3287,1.7825641025641024
3288,1.7664468864468863
3289,1.7664468864468863
3290,1.755970695970696
3291,1.730989010989011
3292,1.722124542124542
3293,1.7116483516483516
3294,1.7068131868131868
3295,1.6979487179487178
3296,1.6931135531135528
3297,1.6915018315018315
3298,1.6995604395604396
3299,1.6987545787545786
3300,1.7124542124542124
3301,1.7132600732600731
3302,1.7245421245421246
3303,1.7317948717948717
3304,1.743882783882784
3305,1.755164835164835
3306,1.7616117216117215
3307,1.7793406593406593
3308,1.7898168498168496
3309,1.8019047619047617
3310,1.8156043956043955
3311,1.83010989010989
3312,1.8373626373626373
3313,1.8430036630036628
3314,1.8478388278388278
3315,1.8470329670329668
3316,1.8534798534798536
3317,1.822051282051282
3318,1.8325274725274725
3319,1.8276923076923075
3320,1.8139926739926737
3321,1.7962637362637361
3322,1.7914285714285714
3323,1.789010989010989
3324,1.7793406593406593
3325,1.763223443223443
3326,1.7608058608058608
3327,1.739047619047619
3328,1.739047619047619
3329,1.726153846153846
3330,1.7132600732600731
3331,1.7140659340659339
3332,1.7156776556776556
3333,1.7148717948717949
3334,1.7245421245421246
3335,1.7197069597069596
3336,1.7285714285714286
3337,1.743882783882784
3338,1.7487179487179487
3339,1.76
3340,1.7745054945054943
3341,1.8019047619047617
3342,1.8035164835164834
3343,1.8244688644688645
3344,1.8486446886446886
3345,1.8438095238095238
3346,1.846227106227106
3347,1.8518681318681318
3348,1.8413919413919413
3349,1.8268864468864467
3350,1.8123809523809524
3351,1.8010989010989011
3352,1.7938461538461536
3353,1.784175824175824
3354,1.7664468864468863
3355,1.7583882783882783
3356,1.747106227106227
3357,1.7237362637362637
3358,1.7027838827838826
3359,1.7076190476190476
3360,1.6810256410256408
3361,1.6761904761904762
3362,1.6713553113553112
3363,1.6649084249084247
3364,1.6568498168498167
3365,1.6600732600732602
3366,1.656043956043956
3367,1.6568498168498167
3368,1.6761904761904762
3369,1.6761904761904762
3370,1.6987545787545786
3371,1.7132600732600731
3372,1.735018315018315
3373,1.7454945054945052
3374,1.759194139194139
3375,1.76
3376,1.7833699633699633
3377,1.7906227106227104
3378,1.8059340659340657
3379,1.8083516483516484
3380,1.8293040293040292
3381,1.8470329670329668
3382,1.8478388278388278
3383,1.842197802197802
3384,1.83010989010989
3385,1.822051282051282
3386,1.8196336996336995
3387,1.8147985347985347
3388,1.7857875457875456
3389,1.7865934065934064
3390,1.7696703296703296
3391,1.7575824175824175
3392,1.7245421245421246
3393,1.7172893772893771
3394,1.7108424908424908
3395,1.7019780219780218
3396,1.6939194139194138
3397,1.6979487179487178
3398,1.6874725274725275
3399,1.6810256410256408
3400,1.6874725274725275
3401,1.6834432234432235
3402,1.6923076923076923
3403,1.7132600732600731
3404,1.718095238095238
3405,1.73018315018315
3406,1.7422710622710622
3407,1.755164835164835
3408,1.7648351648351648
3409,1.7793406593406593
3410,1.78014652014652
3411,1.7906227106227104
3412,1.8043223443223442
3413,1.8027106227106227
3414,1.8019047619047617
3415,1.8091575091575092
3416,1.8139926739926737
3417,1.8139926739926737
3418,1.8002930402930402
3419,1.7994871794871794
3420,1.8010989010989011
3421,1.7817582417582416
3422,1.7753113553113553
3423,1.7712820512820513
3424,1.7495238095238093
3425,1.739047619047619
3426,1.7487179487179487
3427,1.7495238095238093
3428,1.747106227106227
3429,1.7454945054945052
3430,1.739047619047619
3431,1.730989010989011
3432,1.726153846153846
3433,1.7277655677655677
3434,1.7293772893772892
3435,1.739047619047619
3436,1.739047619047619
3437,1.747106227106227
3438,1.7463003663003662
3439,1.7608058608058608
3440,1.764029304029304
3441,1.7575824175824175
3442,1.7833699633699633
3443,1.789010989010989
3444,1.7906227106227104
3445,1.8051282051282052
3446,1.7986813186813186
3447,1.8002930402930402
3448,1.8043223443223442
3449,1.7962637362637361
3450,1.7906227106227104
3451,1.7857875457875456
3452,1.7753113553113553
3453,1.763223443223443
3454,1.76
3455,1.7503296703296702
3456,1.739047619047619
3457,1.730989010989011
3458,1.7237362637362637
3459,1.722930402930403
3460,1.6995604395604396
3461,1.6987545787545786
3462,1.6979487179487178
3463,1.705201465201465
3464,1.6955311355311355
3465,1.6963369963369963
3466,1.7148717948717949
3467,1.7076190476190476
3468,1.7148717948717949
3469,1.7293772893772892
3470,1.7575824175824175
3471,1.7648351648351648
3472,1.7785347985347983
3473,1.7857875457875456
3474,1.8075457875457874
3475,1.8236630036630035
3476,1.8309157509157508
3477,1.8438095238095238
3478,1.8599267399267398
3479,1.8558974358974358
3480,1.859120879120879
3481,1.858315018315018
3482,1.859120879120879
3483,1.8550915750915749
3484,1.838168498168498
3485,1.8244688644688645
3486,1.8115750915750914
3487,1.7970695970695971
3488,1.7922344322344321
3489,1.7704761904761903
3490,1.7616117216117215
3491,1.751135531135531
3492,1.726959706959707
3493,1.7068131868131868
3494,1.7019780219780218
3495,1.6882783882783883
3496,1.6745787545787545
3497,1.6616849816849815
3498,1.6705494505494505
3499,1.6681318681318682
3500,1.6641025641025642
3501,1.6761904761904762
3502,1.6858608058608058
3503,1.6947252747252746
3504,1.7084249084249084
3505,1.7197069597069596
3506,1.730989010989011
3507,1.7487179487179487
3508,1.7487179487179487
3509,1.7616117216117215
3510,1.768058608058608
3511,1.7777289377289376
3512,1.7833699633699633
3513,1.7962637362637361
3514,1.7946520146520146
3515,1.8027106227106227
3516,1.8067399267399267
3517,1.8027106227106227
3518,1.7938461538461536
3519,1.7873992673992674
3520,1.7809523809523808
3521,1.7736996336996336
3522,1.7712820512820513
3523,1.7616117216117215
3524,1.7406593406593407
3525,1.7326007326007327
3526,1.7213186813186812
3527,1.7124542124542124
3528,1.7084249084249084
3529,1.701172161172161
3530,1.6939194139194138
3531,1.705201465201465
3532,1.7108424908424908
3533,1.7068131868131868
3534,1.7124542124542124
3535,1.7293772893772892
3536,1.7326007326007327
3537,1.73018315018315
3538,1.7543589743589743
3539,1.7648351648351648
3540,1.7736996336996336
3541,1.7825641025641024
3542,1.7970695970695971
3543,1.776117216117216
3544,1.7994871794871794
3545,1.8019047619047617
3546,1.8051282051282052
3547,1.8010989010989011
3548,1.8059340659340657
3549,1.8027106227106227
3550,1.7946520146520146
3551,1.7857875457875456
3552,1.784981684981685
3553,1.76
3554,1.751941391941392
3555,1.739047619047619
3556,1.7148717948717949
3557,1.718095238095238
3558,1.7108424908424908
3559,1.6979487179487178
3560,1.6874725274725275
3561,1.6850549450549448
3562,1.6834432234432235
3563,1.6778021978021977
3564,1.6778021978021977
3565,1.6713553113553112
3566,1.6955311355311355
3567,1.6931135531135528
3568,1.7148717948717949
3569,1.722930402930403
3570,1.7334065934065932
3571,1.747912087912088
3572,1.763223443223443
3573,1.7938461538461536
3574,1.7986813186813186
3575,1.8035164835164834
3576,1.8228571428571427
3577,1.8228571428571427
3578,1.8333333333333333
3579,1.8236630036630035
3580,1.8164102564102564
3581,1.8164102564102564
3582,1.8139926739926737
3583,1.8172161172161172
3584,1.7938461538461536
3585,1.7994871794871794
3586,1.7857875457875456
3587,1.78014652014652
3588,1.7543589743589743
3589,1.7487179487179487
3590,1.7293772893772892
3591,1.7084249084249084
3592,1.6890842490842488
3593,1.6753846153846153
3594,1.6761904761904762
3595,1.6600732600732602
3596,1.6600732600732602
3597,1.6544322344322344
3598,1.6584615384615384
3599,1.6713553113553112
3600,1.6632967032967032
3601,1.6778021978021977
3602,1.6874725274725275
3603,1.701172161172161
3604,1.7100366300366299
3605,1.7245421245421246
3606,1.7326007326007327
3607,1.755164835164835
3608,1.7535531135531133
3609,1.7624175824175823
3610,1.7777289377289376
3611,1.7704761904761903
3612,1.7809523809523808
3613,1.7745054945054943
3614,1.7704761904761903
3615,1.772087912087912
3616,1.7728937728937728
3617,1.755164835164835
3618,1.755970695970696
3619,1.7446886446886447
3620,1.730989010989011
3621,1.7205128205128206
3622,1.7156776556776556
3623,1.7068131868131868
3624,1.6850549450549448
3625,1.6786080586080585
3626,1.6697435897435897
3627,1.6592673992673992
3628,1.6423443223443221
3629,1.6399267399267399
3630,1.6495970695970694
3631,1.6568498168498167
3632,1.6487912087912087
3633,1.6576556776556775
3634,1.6769963369963368
3635,1.6794139194139193
3636,1.6802197802197802
3637,1.7019780219780218
3638,1.6906959706959706
3639,1.7189010989010989
3640,1.7342124542124542
3641,1.743882783882784
3642,1.755164835164835
3643,1.7753113553113553
3644,1.793040293040293
3645,1.8002930402930402
3646,1.8043223443223442
3647,1.8083516483516484
3648,1.8043223443223442
3649,1.8010989010989011
3650,1.7938461538461536
3651,1.7809523809523808
3652,1.7793406593406593
3653,1.763223443223443
3654,1.7503296703296702
3655,1.739047619047619
3656,1.726153846153846
3657,1.722930402930403
3658,1.6987545787545786
3659,1.6858608058608058
3660,1.6890842490842488
3661,1.6568498168498167
3662,1.6624908424908424
3663,1.6689377289377287
3664,1.6624908424908424
3665,1.6681318681318682
3666,1.6689377289377287
3667,1.6802197802197802
3668,1.6906959706959706
3669,1.7060073260073259
3670,1.718095238095238
3671,1.7358241758241757
3672,1.7535531135531133
3673,1.7688644688644688
3674,1.7817582417582416
3675,1.8010989010989011
3676,1.8204395604395605
3677,1.8373626373626373
3678,1.842197802197802
3679,1.8470329670329668
3680,1.8389743589743588
3681,1.8357509157509158
3682,1.8115750915750914
3683,1.8051282051282052
3684,1.789010989010989
3685,1.7712820512820513
3686,1.7503296703296702
3687,1.7293772893772892
3688,1.7019780219780218
3689,1.6810256410256408
3690,1.6632967032967032
3691,1.6495970695970694
3692,1.6342857142857141
3693,1.626227106227106
3694,1.61010989010989
3695,1.6125274725274723
3696,1.6028571428571428
3697,1.6173626373626373
3698,1.6238095238095238
3699,1.626227106227106
3700,1.6375091575091574
3701,1.6447619047619046
3702,1.6552380952380952
3703,1.6778021978021977
3704,1.6818315018315018
3705,1.705201465201465
3706,1.7197069597069596
3707,1.743882783882784
3708,1.7503296703296702
3709,1.772087912087912
3710,1.7785347985347983
3711,1.7809523809523808
3712,1.7946520146520146
3713,1.8002930402930402
3714,1.8019047619047617
3715,1.8091575091575092
3716,1.7954578754578754
3717,1.8067399267399267
3718,1.8002930402930402
3719,1.793040293040293
3720,1.7833699633699633
3721,1.7664468864468863
3722,1.7656410256410255
3723,1.747106227106227
3724,1.7374358974358972
3725,1.7358241758241757
3726,1.7076190476190476
3727,1.7019780219780218
3728,1.697142857142857
3729,1.6818315018315018
3730,1.6826373626373625
3731,1.6761904761904762
3732,1.6689377289377287
3733,1.6616849816849815
3734,1.6657142857142855
3735,1.6729670329670328
3736,1.6673260073260072
3737,1.6745787545787545
3738,1.6858608058608058
3739,1.6842490842490843
3740,1.6882783882783883
3741,1.7019780219780218
3742,1.7043956043956043
3743,1.7100366300366299
3744,1.7132600732600731
3745,1.722930402930403
3746,1.7237362637362637
3747,1.7342124542124542
3748,1.7358241758241757
3749,1.7358241758241757
3750,1.7374358974358972
3751,1.7326007326007327
3752,1.7213186813186812
3753,1.7060073260073259
3754,1.6979487179487178
3755,1.6963369963369963
3756,1.6745787545787545
3757,1.6463736263736264
3758,1.6584615384615384
3759,1.6471794871794871
3760,1.6326739926739926
3761,1.623003663003663
3762,1.618168498168498
3763,1.6238095238095238
3764,1.6213919413919413
3765,1.6246153846153844
3766,1.6286446886446884
3767,1.623003663003663
3768,1.6447619047619046
3769,1.6616849816849815
3770,1.6737728937728937
3771,1.6729670329670328
3772,1.6874725274725275
3773,1.7043956043956043
3774,1.718095238095238
3775,1.7245421245421246
3776,1.722930402930403
3777,1.7326007326007327
3778,1.7358241758241757
3779,1.7382417582417582
3780,1.747106227106227
3781,1.747106227106227
3782,1.7374358974358972
3783,1.743076923076923
3784,1.7342124542124542
3785,1.7277655677655677
3786,1.7277655677655677
3787,1.7084249084249084
3788,1.6987545787545786
3789,1.6850549450549448
3790,1.6761904761904762
3791,1.6600732600732602
3792,1.6447619047619046
3793,1.6367032967032966
3794,1.6318681318681318
3795,1.6286446886446884
3796,1.6367032967032966
3797,1.6294505494505493
3798,1.6528205128205127
3799,1.6592673992673992
3800,1.6697435897435897
3801,1.6632967032967032
3802,1.6778021978021977
3803,1.6858608058608058
3804,1.6955311355311355
3805,1.7068131868131868
3806,1.7205128205128206
3807,1.7382417582417582
3808,1.7398534798534797
3809,1.755164835164835
3810,1.7495238095238093
3811,1.763223443223443
3812,1.7712820512820513
3813,1.7656410256410255
3814,1.755164835164835
3815,1.7616117216117215
3816,1.7414652014652012
3817,1.726959706959707
3818,1.7068131868131868
3819,1.6778021978021977
3820,1.6737728937728937
3821,1.647985347985348
3822,1.6383150183150181
3823,1.6173626373626373
3824,1.5996336996336997
3825,1.5923809523809522
3826,1.5827106227106227
3827,1.5657875457875456
3828,1.5738461538461537
3829,1.577069597069597
3830,1.5762637362637362
3831,1.5875457875457875
3832,1.605274725274725
3833,1.6157509157509158
3834,1.6246153846153844
3835,1.6358974358974359
3836,1.6463736263736264
3837,1.6665201465201465
3838,1.6737728937728937
3839,1.6906959706959706
3840,1.709230769230769
3841,1.7245421245421246
3842,1.7382417582417582
3843,1.747912087912088
3844,1.76
3845,1.767252747252747
3846,1.7608058608058608
3847,1.7704761904761903
3848,1.759194139194139
3849,1.7495238095238093
3850,1.7446886446886447
3851,1.7197069597069596
3852,1.705201465201465
3853,1.6915018315018315
3854,1.6842490842490843
3855,1.6697435897435897
3856,1.647985347985348
3857,1.61010989010989
3858,1.6254212454212453
3859,1.605274725274725
3860,1.605274725274725
3861,1.593186813186813
3862,1.601245421245421
3863,1.593186813186813
3864,1.5875457875457875
3865,1.5875457875457875
3866,1.6084981684981683
3867,1.6117216117216118
3868,1.618168498168498
3869,1.6342857142857141
3870,1.6415384615384614
3871,1.6608791208791207
3872,1.6697435897435897
3873,1.6906959706959706
3874,1.7076190476190476
3875,1.718095238095238
3876,1.7374358974358972
3877,1.7414652014652012
3878,1.7487179487179487
3879,1.751941391941392
3880,1.7495238095238093
3881,1.7487179487179487
3882,1.7454945054945052
3883,1.718095238095238
3884,1.722124542124542
3885,1.701172161172161
3886,1.6898901098901098
3887,1.6665201465201465
3888,1.6447619047619046
3889,1.623003663003663
3890,1.605274725274725
3891,1.5746520146520147
3892,1.5738461538461537
3893,1.5480586080586078
3894,1.5359706959706958
3895,1.531135531135531
3896,1.5335531135531135
3897,1.527106227106227
3898,1.5383882783882783
3899,1.5424175824175823
3900,1.5698168498168497
3901,1.5786813186813187
3902,1.5956043956043957
3903,1.6133333333333333
3904,1.63025641025641
3905,1.6383150183150181
3906,1.6536263736263734
3907,1.6769963369963368
3908,1.7019780219780218
3909,1.7068131868131868
3910,1.726959706959707
3911,1.7342124542124542
3912,1.7326007326007327
3913,1.739047619047619
3914,1.7334065934065932
3915,1.7326007326007327
3916,1.735018315018315
3917,1.7189010989010989
3918,1.7003663003663003
3919,1.6906959706959706
3920,1.6737728937728937
3921,1.6665201465201465
3922,1.6463736263736264
3923,1.623003663003663
3924,1.6109157509157508
3925,1.5915750915750915
3926,1.573040293040293
3927,1.5762637362637362
3928,1.5649816849816849
3929,1.5593406593406594
3930,1.5472527472527473
3931,1.5553113553113553
3932,1.564175824175824
3933,1.5617582417582416
3934,1.5746520146520147
3935,1.5843223443223442
3936,1.593992673992674
3937,1.6117216117216118
3938,1.6213919413919413
3939,1.6455677655677654
3940,1.652014652014652
3941,1.6616849816849815
3942,1.6826373626373625
3943,1.6802197802197802
3944,1.7003663003663003
3945,1.6995604395604396
3946,1.7084249084249084
3947,1.7156776556776556
3948,1.718095238095238
3949,1.7100366300366299
3950,1.7124542124542124
3951,1.7035897435897436
3952,1.709230769230769
3953,1.6842490842490843
3954,1.6665201465201465
3955,1.6528205128205127
3956,1.6431501831501831
3957,1.626227106227106
3958,1.618168498168498
3959,1.5956043956043957
3960,1.5762637362637362
3961,1.5778754578754577
3962,1.5625641025641026
3963,1.5577289377289376
3964,1.5512820512820513
3965,1.5609523809523809
3966,1.564175824175824
3967,1.5665934065934066
3968,1.585128205128205
3969,1.6004395604395603
3970,1.6028571428571428
3971,1.6358974358974359
3972,1.6383150183150181
3973,1.6624908424908424
3974,1.6802197802197802
3975,1.697142857142857
3976,1.7100366300366299
3977,1.7293772893772892
3978,1.739047619047619
3979,1.7503296703296702
3980,1.755164835164835
3981,1.76
3982,1.7422710622710622
3983,1.7446886446886447
3984,1.73018315018315
3985,1.7213186813186812
3986,1.6979487179487178
3987,1.6915018315018315
3988,1.6737728937728937
3989,1.656043956043956
3990,1.6318681318681318
3991,1.6173626373626373
3992,1.6109157509157508
3993,1.593186813186813
3994,1.585934065934066
3995,1.577069597069597
3996,1.5657875457875456
3997,1.577069597069597
3998,1.568205128205128
3999,1.577069597069597
4000,1.5778754578754577
4001,1.6004395604395603
4002,1.61010989010989
4003,1.6165567765567763
4004,1.627032967032967
4005,1.6342857142857141
4006,1.6552380952380952
4007,1.6584615384615384
4008,1.6737728937728937
4009,1.6923076923076923
4010,1.7108424908424908
4011,1.722930402930403
4012,1.7164835164835164
4013,1.7277655677655677
4014,1.7277655677655677
4015,1.7285714285714286
4016,1.7132600732600731
4017,1.7164835164835164
4018,1.7019780219780218
4019,1.7003663003663003
4020,1.6794139194139193
4021,1.6689377289377287
4022,1.6487912087912087
4023,1.6423443223443221
4024,1.6109157509157508
4025,1.597216117216117
4026,1.597216117216117
4027,1.5778754578754577
4028,1.5698168498168497
4029,1.5585347985347986
4030,1.5496703296703296
4031,1.5553113553113553
4032,1.5665934065934066
4033,1.5633699633699634
4034,1.564175824175824
4035,1.593186813186813
4036,1.598021978021978
4037,1.614139194139194
4038,1.6278388278388278
4039,1.6487912087912087
4040,1.6761904761904762
4041,1.6850549450549448
4042,1.6931135531135528
4043,1.6979487179487178
4044,1.7068131868131868
4045,1.7245421245421246
4046,1.7164835164835164
4047,1.73018315018315
4048,1.7213186813186812
4049,1.7205128205128206
4050,1.7060073260073259
4051,1.6955311355311355
4052,1.6866666666666665
4053,1.6713553113553112
4054,1.6471794871794871
4055,1.631062271062271
4056,1.6125274725274723
4057,1.593186813186813
4058,1.577069597069597
4059,1.577069597069597
4060,1.5698168498168497
4061,1.5464468864468863
4062,1.5456410256410256
4063,1.5359706959706958
4064,1.5375824175824175
4065,1.5303296703296703
4066,1.5351648351648353
4067,1.5214652014652015
4068,1.523076923076923
4069,1.5440293040293038
4070,1.5536996336996336
4071,1.5585347985347986
4072,1.5802930402930402
4073,1.605274725274725
4074,1.614139194139194
4075,1.631062271062271
4076,1.6391208791208791
4077,1.6632967032967032
4078,1.6842490842490843
4079,1.6939194139194138
4080,1.6955311355311355
4081,1.6898901098901098
4082,1.709230769230769
4083,1.6858608058608058
4084,1.7035897435897436
4085,1.6939194139194138
4086,1.6898901098901098
4087,1.6778021978021977
4088,1.6778021978021977
4089,1.6608791208791207
4090,1.6423443223443221
4091,1.6487912087912087
4092,1.6294505494505493
4093,1.622197802197802
4094,1.623003663003663
4095,1.6109157509157508
4096,1.5996336996336997
4097,1.5923809523809522
4098,1.5907692307692307
4099,1.573040293040293
4100,1.5835164835164834
4101,1.5794871794871794
4102,1.5947985347985347
4103,1.5996336996336997
4104,1.593992673992674
4105,1.614139194139194
4106,1.623003663003663
4107,1.6318681318681318
4108,1.6512087912087912
4109,1.6584615384615384
4110,1.6657142857142855
4111,1.6729670329670328
4112,1.6761904761904762
4113,1.6769963369963368
4114,1.6858608058608058
4115,1.6874725274725275
4116,1.6761904761904762
4117,1.6721611721611722
4118,1.6721611721611722
4119,1.6544322344322344
4120,1.6576556776556775
4121,1.626227106227106
4122,1.6294505494505493
4123,1.6197802197802198
4124,1.601245421245421
4125,1.5706227106227106
4126,1.5794871794871794
4127,1.569010989010989
4128,1.564175824175824
4129,1.564175824175824
4130,1.5657875457875456
4131,1.5665934065934066
4132,1.5778754578754577
4133,1.5947985347985347
4134,1.5947985347985347
4135,1.6109157509157508
4136,1.6213919413919413
4137,1.6367032967032966
4138,1.6431501831501831
4139,1.647985347985348
4140,1.6584615384615384
4141,1.6624908424908424
4142,1.6786080586080585
4143,1.6729670329670328
4144,1.6818315018315018
4145,1.6810256410256408
4146,1.6882783882783883
4147,1.6769963369963368
4148,1.6778021978021977
4149,1.6641025641025642
4150,1.6592673992673992
4151,1.6528205128205127
4152,1.6358974358974359
4153,1.6318681318681318
4154,1.6117216117216118
4155,1.6125274725274723
4156,1.5988278388278387
4157,1.5956043956043957
4158,1.593186813186813
4159,1.5762637362637362
4160,1.5633699633699634
4161,1.5657875457875456
4162,1.5545054945054944
4163,1.5480586080586078
4164,1.5561172161172159
4165,1.5561172161172159
4166,1.5593406593406594
4167,1.568205128205128
4168,1.581904761904762
4169,1.593992673992674
4170,1.6028571428571428
4171,1.6036630036630037
4172,1.6294505494505493
4173,1.6342857142857141
4174,1.6455677655677654
4175,1.6455677655677654
4176,1.6616849816849815
4177,1.6665201465201465
4178,1.6713553113553112
4179,1.6721611721611722
4180,1.6641025641025642
4181,1.6673260073260072
4182,1.6632967032967032
4183,1.6681318681318682
4184,1.6616849816849815
4185,1.6641025641025642
4186,1.647985347985348
4187,1.6367032967032966
4188,1.6238095238095238
4189,1.5956043956043957
4190,1.5988278388278387
4191,1.5956043956043957
4192,1.5867399267399267
4193,1.5794871794871794
4194,1.5794871794871794
4195,1.5617582417582416
4196,1.5617582417582416
4197,1.5536996336996336
4198,1.5319413919413918
4199,1.5569230769230769
4200,1.5569230769230769
4201,1.5520879120879119
4202,1.5553113553113553
4203,1.5593406593406594
4204,1.5706227106227106
4205,1.5794871794871794
4206,1.5907692307692307
4207,1.605274725274725
4208,1.622197802197802
4209,1.6238095238095238
4210,1.6383150183150181
4211,1.6423443223443221
4212,1.6600732600732602
4213,1.6657142857142855
4214,1.6697435897435897
4215,1.6761904761904762
4216,1.6673260073260072
4217,1.6584615384615384
4218,1.652014652014652
4219,1.6552380952380952
4220,1.6431501831501831
4221,1.6367032967032966
4222,1.6213919413919413
4223,1.6068864468864468
4224,1.601245421245421
4225,1.5915750915750915
4226,1.5714285714285714
4227,1.5657875457875456
4228,1.5649816849816849
4229,1.5520879120879119
4230,1.5416117216117216
4231,1.5520879120879119
4232,1.5561172161172159
4233,1.5528937728937728
4234,1.5657875457875456
4235,1.569010989010989
4236,1.5746520146520147
4237,1.5867399267399267
4238,1.585128205128205
4239,1.61010989010989
4240,1.614139194139194
4241,1.623003663003663
4242,1.6375091575091574
4243,1.6383150183150181
4244,1.6399267399267399
4245,1.647985347985348
4246,1.6649084249084247
4247,1.6641025641025642
4248,1.6592673992673992
4249,1.6608791208791207
4250,1.6536263736263734
4251,1.6423443223443221
4252,1.6423443223443221
4253,1.6205860805860803
4254,1.6093040293040293
4255,1.598021978021978
4256,1.5883516483516482
4257,1.5657875457875456
4258,1.5577289377289376
4259,1.5399999999999998
4260,1.5287179487179485
4261,1.5303296703296703
4262,1.5206593406593405
4263,1.515018315018315
4264,1.523076923076923
4265,1.5246886446886445
4266,1.5359706959706958
4267,1.5464468864468863
4268,1.5593406593406594
4269,1.5907692307692307
4270,1.5947985347985347
4271,1.6133333333333333
4272,1.6423443223443221
4273,1.6657142857142855
4274,1.6794139194139193
4275,1.6939194139194138
4276,1.7116483516483516
4277,1.7205128205128206
4278,1.7245421245421246
4279,1.7293772893772892
4280,1.7374358974358972
4281,1.7285714285714286
4282,1.7317948717948717
4283,1.7197069597069596
4284,1.7060073260073259
4285,1.6906959706959706
4286,1.6826373626373625
4287,1.6673260073260072
4288,1.6495970695970694
4289,1.6238095238095238
4290,1.6044688644688643
4291,1.593992673992674
4292,1.5706227106227106
4293,1.5649816849816849
4294,1.5585347985347986
4295,1.5375824175824175
4296,1.5359706959706958
4297,1.531135531135531
4298,1.5303296703296703
4299,1.5303296703296703
4300,1.5367765567765566
4301,1.5343589743589743
4302,1.531135531135531
4303,1.5512820512820513
4304,1.5585347985347986
4305,1.577069597069597
4306,1.5883516483516482
4307,1.605274725274725
4308,1.623003663003663
4309,1.6431501831501831
4310,1.6568498168498167
4311,1.6552380952380952
4312,1.6552380952380952
4313,1.6568498168498167
4314,1.6624908424908424
4315,1.6632967032967032
4316,1.6552380952380952
4317,1.6447619047619046
4318,1.6278388278388278
4319,1.6149450549450548
4320,1.593186813186813
4321,1.581904761904762
4322,1.564175824175824
4323,1.5536996336996336
4324,1.5327472527472525
4325,1.5319413919413918
4326,1.5222710622710622
4327,1.5005128205128204
4328,1.5037362637362635
4329,1.502930402930403
4330,1.5126007326007325
4331,1.4997069597069594
4332,1.4972893772893772
4333,1.5117948717948717
4334,1.5117948717948717
4335,1.5206593406593405
4336,1.5295238095238095
4337,1.5456410256410256
4338,1.5504761904761903
4339,1.5585347985347986
4340,1.5722344322344322
4341,1.5923809523809522
4342,1.597216117216117
4343,1.6117216117216118
4344,1.622197802197802
4345,1.63025641025641
4346,1.6334798534798534
4347,1.6391208791208791
4348,1.647985347985348
4349,1.6447619047619046
4350,1.6463736263736264
4351,1.656043956043956
4352,1.6383150183150181
4353,1.6528205128205127
4354,1.6334798534798534
4355,1.6238095238095238
4356,1.6205860805860803
4357,1.605274725274725
4358,1.5923809523809522
4359,1.5867399267399267
4360,1.5794871794871794
4361,1.5657875457875456
4362,1.577069597069597
4363,1.568205128205128
4364,1.5746520146520147
4365,1.569010989010989
4366,1.577069597069597
4367,1.5827106227106227
4368,1.5794871794871794
4369,1.58996336996337
4370,1.598021978021978
4371,1.601245421245421
4372,1.6157509157509158
4373,1.618168498168498
4374,1.6383150183150181
4375,1.6431501831501831
4376,1.6600732600732602
4377,1.6665201465201465
4378,1.6592673992673992
4379,1.6608791208791207
4380,1.6544322344322344
4381,1.6552380952380952
4382,1.6463736263736264
4383,1.6463736263736264
4384,1.6423443223443221
4385,1.623003663003663
4386,1.6149450549450548
4387,1.6084981684981683
4388,1.581098901098901
4389,1.5714285714285714
4390,1.568205128205128
4391,1.5536996336996336
4392,1.5327472527472525
4393,1.5327472527472525
4394,1.5263003663003663
4395,1.5263003663003663
4396,1.5303296703296703
4397,1.5367765567765566
4398,1.5335531135531135
4399,1.5464468864468863
4400,1.5569230769230769
4401,1.5553113553113553
4402,1.5585347985347986
4403,1.5754578754578754
4404,1.5907692307692307
4405,1.6036630036630037
4406,1.622197802197802
4407,1.6407326007326006
4408,1.6431501831501831
4409,1.6689377289377287
4410,1.6826373626373625
4411,1.6923076923076923
4412,1.7003663003663003
4413,1.6955311355311355
4414,1.7019780219780218
4415,1.705201465201465
4416,1.6842490842490843
4417,1.6826373626373625
4418,1.6616849816849815
4419,1.6504029304029304
4420,1.6367032967032966
4421,1.6173626373626373
4422,1.61010989010989
4423,1.5956043956043957
4424,1.577069597069597
4425,1.564175824175824
4426,1.5480586080586078
4427,1.5504761904761903
4428,1.5335531135531135
4429,1.5327472527472525
4430,1.5408058608058606
4431,1.5424175824175823
4432,1.5585347985347986
4433,1.5561172161172159
4434,1.5617582417582416
4435,1.5617582417582416
4436,1.5794871794871794
4437,1.564175824175824
4438,1.5827106227106227
4439,1.589157509157509
4440,1.5915750915750915
4441,1.598021978021978
4442,1.5964102564102562
4443,1.5964102564102562
4444,1.6109157509157508
4445,1.6173626373626373
4446,1.6278388278388278
4447,1.631062271062271
4448,1.6367032967032966
4449,1.6278388278388278
4450,1.631062271062271
4451,1.618974358974359
4452,1.6149450549450548
4453,1.6133333333333333
4454,1.6044688644688643
4455,1.6117216117216118
4456,1.597216117216117
4457,1.5956043956043957
4458,1.5843223443223442
4459,1.5827106227106227
4460,1.5633699633699634
4461,1.5569230769230769
4462,1.5625641025641026
4463,1.5698168498168497
4464,1.5585347985347986
4465,1.5673992673992674
4466,1.5835164835164834
4467,1.5907692307692307
4468,1.5947985347985347
4469,1.6076923076923078
4470,1.597216117216117
4471,1.6205860805860803
4472,1.6294505494505493
4473,1.6326739926739926
4474,1.6495970695970694
4475,1.6576556776556775
4476,1.6705494505494505
4477,1.6697435897435897
4478,1.6818315018315018
4479,1.6802197802197802
4480,1.6761904761904762
4481,1.6769963369963368
4482,1.6608791208791207
4483,1.6504029304029304
4484,1.6367032967032966
4485,1.6173626373626373
4486,1.5996336996336997
4487,1.593186813186813
4488,1.5649816849816849
4489,1.5665934065934066
4490,1.5536996336996336
4491,1.5375824175824175
4492,1.5359706959706958
4493,1.5375824175824175
4494,1.5295238095238095
4495,1.5399999999999998
4496,1.5464468864468863
4497,1.5601465201465199
4498,1.5657875457875456
4499,1.5657875457875456
4500,1.5714285714285714
4501,1.5883516483516482
4502,1.5907692307692307
4503,1.593992673992674
4504,1.6117216117216118
4505,1.6238095238095238
4506,1.6399267399267399
4507,1.647985347985348
4508,1.6568498168498167
4509,1.6689377289377287
4510,1.6794139194139193
4511,1.6810256410256408
4512,1.6794139194139193
4513,1.6745787545787545
4514,1.6689377289377287
4515,1.647985347985348
4516,1.6342857142857141
4517,1.618974358974359
4518,1.6093040293040293
4519,1.5835164835164834
4520,1.568205128205128
4521,1.5416117216117216
4522,1.5279120879120878
4523,1.5134065934065932
4524,1.5053479853479852
4525,1.477142857142857
4526,1.4674725274725273
4527,1.456190476190476
4528,1.4513553113553113
4529,1.4449084249084247
4530,1.4457142857142857
4531,1.4578021978021978
4532,1.4674725274725273
4533,1.4860073260073259
4534,1.4956776556776554
4535,1.523076923076923
4536,1.5408058608058606
4537,1.564175824175824
4538,1.5746520146520147
4539,1.5947985347985347
4540,1.606080586080586
4541,1.6358974358974359
4542,1.6616849816849815
4543,1.6745787545787545
4544,1.6874725274725275
4545,1.7019780219780218
4546,1.7019780219780218
4547,1.7035897435897436
4548,1.6931135531135528
4549,1.7068131868131868
4550,1.6923076923076923
4551,1.6657142857142855
4552,1.6665201465201465
4553,1.6600732600732602
4554,1.635091575091575
4555,1.6068864468864468
4556,1.5964102564102562
4557,1.5843223443223442
4558,1.564175824175824
4559,1.5416117216117216
4560,1.5287179487179485
4561,1.5126007326007325
4562,1.519047619047619
4563,1.510989010989011
4564,1.502930402930403
4565,1.510989010989011
4566,1.5117948717948717
4567,1.523076923076923
4568,1.527106227106227
4569,1.5319413919413918
4570,1.5416117216117216
4571,1.5569230769230769
4572,1.5746520146520147
4573,1.5835164835164834
4574,1.605274725274725
4575,1.6109157509157508
4576,1.627032967032967
4577,1.6326739926739926
4578,1.6415384615384614
4579,1.6383150183150181
4580,1.6552380952380952
4581,1.6608791208791207
4582,1.6471794871794871
4583,1.6391208791208791
4584,1.6286446886446884
4585,1.6084981684981683
4586,1.606080586080586
4587,1.6004395604395603
4588,1.5883516483516482
4589,1.5722344322344322
4590,1.5665934065934066
4591,1.5488644688644688
4592,1.5488644688644688
4593,1.5432234432234433
4594,1.5246886446886445
4595,1.5206593406593405
4596,1.5214652014652015
4597,1.5206593406593405
4598,1.5319413919413918
4599,1.5359706959706958
4600,1.5545054945054944
4601,1.5649816849816849
4602,1.5794871794871794
4603,1.5875457875457875
4604,1.6028571428571428
4605,1.626227106227106
4606,1.6415384615384614
4607,1.6544322344322344
4608,1.6665201465201465
4609,1.6608791208791207
4610,1.6713553113553112
4611,1.6802197802197802
4612,1.6834432234432235
4613,1.6769963369963368
4614,1.6705494505494505
4615,1.6632967032967032
4616,1.6697435897435897
4617,1.6504029304029304
4618,1.6318681318681318
4619,1.622197802197802
4620,1.5794871794871794
4621,1.568205128205128
4622,1.5633699633699634
4623,1.5448351648351648
4624,1.5287179487179485
4625,1.523076923076923
4626,1.5077655677655677
4627,1.506959706959707
4628,1.5053479853479852
4629,1.4997069597069594
4630,1.4916483516483514
4631,1.494871794871795
4632,1.49003663003663
4633,1.502930402930403
4634,1.5005128205128204
4635,1.5214652014652015
4636,1.5359706959706958
4637,1.5408058608058606
4638,1.5536996336996336
4639,1.5545054945054944
4640,1.5665934065934066
4641,1.593186813186813
4642,1.6093040293040293
4643,1.6157509157509158
4644,1.6197802197802198
4645,1.623003663003663
4646,1.635091575091575
4647,1.63025641025641
4648,1.6334798534798534
4649,1.6294505494505493
4650,1.6318681318681318
4651,1.6391208791208791
4652,1.614139194139194
4653,1.627032967032967
4654,1.623003663003663
4655,1.6165567765567763
4656,1.593992673992674
4657,1.593186813186813
4658,1.5714285714285714
4659,1.5585347985347986
4660,1.5504761904761903
4661,1.5327472527472525
4662,1.5198534798534797
4663,1.5206593406593405
4664,1.515018315018315
4665,1.5238827838827838
4666,1.5166300366300365
4667,1.5134065934065932
4668,1.5206593406593405
4669,1.5246886446886445
4670,1.5319413919413918
4671,1.5440293040293038
4672,1.5577289377289376
4673,1.564175824175824
4674,1.5649816849816849
4675,1.5875457875457875
4676,1.5956043956043957
4677,1.6109157509157508
4678,1.6133333333333333
4679,1.618974358974359
4680,1.623003663003663
4681,1.6246153846153844
4682,1.61010989010989
4683,1.6125274725274723
4684,1.605274725274725
4685,1.6084981684981683
4686,1.598021978021978
4687,1.6004395604395603
4688,1.5867399267399267
4689,1.5714285714285714
4690,1.564175824175824
4691,1.5528937728937728
4692,1.5399999999999998
4693,1.5206593406593405
4694,1.5101831501831502
4695,1.5085714285714285
4696,1.5053479853479852
4697,1.4876190476190474
4698,1.4916483516483514
4699,1.506959706959707
4700,1.4940659340659341
4701,1.5077655677655677
4702,1.506959706959707
4703,1.5166300366300365
4704,1.5383882783882783
4705,1.5512820512820513
4706,1.5609523809523809
4707,1.581098901098901
4708,1.6036630036630037
4709,1.61010989010989
4710,1.6165567765567763
4711,1.6471794871794871
4712,1.6495970695970694
4713,1.6487912087912087
4714,1.6592673992673992
4715,1.6391208791208791
4716,1.6471794871794871
4717,1.6592673992673992
4718,1.6439560439560439
4719,1.635091575091575
4720,1.6278388278388278
4721,1.6197802197802198
4722,1.5988278388278387
4723,1.5964102564102562
4724,1.5915750915750915
4725,1.5754578754578754
4726,1.5633699633699634
4727,1.5440293040293038
4728,1.5375824175824175
4729,1.5214652014652015
4730,1.5319413919413918
4731,1.5295238095238095
4732,1.5359706959706958
4733,1.5359706959706958
4734,1.5375824175824175
4735,1.5504761904761903
4736,1.5536996336996336
4737,1.5553113553113553
4738,1.5649816849816849
4739,1.5802930402930402
4740,1.5754578754578754
4741,1.593186813186813
4742,1.6125274725274723
4743,1.6109157509157508
4744,1.6254212454212453
4745,1.6318681318681318
4746,1.6423443223443221
4747,1.6326739926739926
4748,1.6238095238095238
4749,1.6278388278388278
4750,1.6004395604395603
4751,1.5947985347985347
4752,1.5867399267399267
4753,1.5617582417582416
4754,1.5480586080586078
4755,1.5383882783882783
4756,1.5238827838827838
4757,1.4956776556776554
4758,1.5013186813186812
4759,1.4843956043956044
4760,1.4747252747252748
4761,1.481172161172161
4762,1.4715018315018313
4763,1.4634432234432233
4764,1.49003663003663
4765,1.4835897435897434
4766,1.49003663003663
4767,1.510989010989011
4768,1.519047619047619
4769,1.5295238095238095
4770,1.5391941391941393
4771,1.5665934065934066
4772,1.5706227106227106
4773,1.581904761904762
4774,1.589157509157509
4775,1.5996336996336997
4776,1.6028571428571428
4777,1.6133333333333333
4778,1.622197802197802
4779,1.622197802197802
4780,1.618168498168498
4781,1.6173626373626373
4782,1.6068864468864468
4783,1.601245421245421
4784,1.593186813186813
4785,1.5907692307692307
4786,1.5706227106227106
4787,1.5714285714285714
4788,1.5593406593406594
4789,1.5553113553113553
4790,1.5375824175824175
4791,1.531135531135531
4792,1.515018315018315
4793,1.494871794871795
4794,1.4916483516483514
4795,1.4916483516483514
4796,1.4924542124542124
4797,1.4860073260073259
4798,1.4908424908424909
4799,1.5053479853479852
4800,1.5085714285714285
4801,1.5174358974358972
4802,1.5246886446886445
4803,1.5416117216117216
4804,1.5617582417582416
4805,1.5698168498168497
4806,1.5923809523809522
4807,1.5956043956043957
4808,1.6149450549450548
4809,1.6238095238095238
4810,1.635091575091575
4811,1.6423443223443221
4812,1.6391208791208791
4813,1.6455677655677654
4814,1.656043956043956
4815,1.6358974358974359
4816,1.6342857142857141
4817,1.6173626373626373
4818,1.605274725274725
4819,1.5947985347985347
4820,1.585128205128205
4821,1.568205128205128
4822,1.5528937728937728
4823,1.5327472527472525
4824,1.5214652014652015
4825,1.4924542124542124
4826,1.4876190476190474
4827,1.4884249084249084
4828,1.4674725274725273
4829,1.4868131868131869
4830,1.4835897435897434
4831,1.4884249084249084
4832,1.4908424908424909
4833,1.5005128205128204
4834,1.5101831501831502
4835,1.531135531135531
4836,1.5335531135531135
4837,1.5536996336996336
4838,1.5545054945054944
4839,1.5665934065934066
4840,1.5786813186813187
4841,1.5923809523809522
4842,1.606080586080586
4843,1.6109157509157508
4844,1.6213919413919413
4845,1.623003663003663
4846,1.618974358974359
4847,1.6415384615384614
4848,1.6367032967032966
4849,1.6367032967032966
4850,1.6334798534798534
4851,1.626227106227106
4852,1.6342857142857141
4853,1.6149450549450548
4854,1.6165567765567763
4855,1.5964102564102562
4856,1.5778754578754577
4857,1.568205128205128
4858,1.5448351648351648
4859,1.5359706959706958
4860,1.531135531135531
4861,1.5134065934065932
4862,1.5037362637362635
4863,1.5021245421245422
4864,1.494871794871795
4865,1.4868131868131869
4866,1.4795604395604394
4867,1.4852014652014651
4868,1.4843956043956044
4869,1.4932600732600732
4870,1.5013186813186812
4871,1.5045421245421244
4872,1.5166300366300365
4873,1.5327472527472525
4874,1.5263003663003663
4875,1.5585347985347986
4876,1.5577289377289376
4877,1.593186813186813
4878,1.593186813186813
4879,1.6076923076923078
4880,1.6133333333333333
4881,1.6213919413919413
4882,1.6334798534798534
4883,1.6391208791208791
4884,1.6447619047619046
4885,1.6399267399267399
4886,1.6367032967032966
4887,1.6213919413919413
4888,1.6133333333333333
4889,1.593992673992674
4890,1.5867399267399267
4891,1.5762637362637362
4892,1.5561172161172159
4893,1.5359706959706958
4894,1.5351648351648353
4895,1.5391941391941393
4896,1.5367765567765566
4897,1.5335531135531135
4898,1.5399999999999998
4899,1.5391941391941393
4900,1.5335531135531135
4901,1.5359706959706958
4902,1.5432234432234433
4903,1.5399999999999998
4904,1.5456410256410256
4905,1.5545054945054944
4906,1.564175824175824
4907,1.569010989010989
4908,1.585128205128205
4909,1.589157509157509
4910,1.6044688644688643
4911,1.622197802197802
4912,1.6326739926739926
4913,1.6391208791208791
4914,1.6544322344322344
4915,1.6536263736263734
4916,1.652014652014652
4917,1.631062271062271
4918,1.618168498168498
4919,1.6254212454212453
4920,1.6068864468864468
4921,1.5786813186813187
4922,1.5754578754578754
4923,1.5448351648351648
4924,1.5303296703296703
4925,1.5263003663003663
4926,1.5061538461538462
4927,1.5061538461538462
4928,1.5045421245421244
4929,1.4908424908424909
4930,1.494871794871795
4931,1.5013186813186812
4932,1.510989010989011
4933,1.519047619047619
4934,1.531135531135531
4935,1.5448351648351648
4936,1.5593406593406594
4937,1.5673992673992674
4938,1.581098901098901
4939,1.6004395604395603
4940,1.6238095238095238
4941,1.6367032967032966
4942,1.6431501831501831
4943,1.6616849816849815
4944,1.6600732600732602
4945,1.6786080586080585
4946,1.6778021978021977
4947,1.6681318681318682
4948,1.6721611721611722
4949,1.6681318681318682
4950,1.656043956043956
4951,1.6463736263736264
4952,1.6286446886446884
4953,1.6117216117216118
4954,1.5907692307692307
4955,1.569010989010989
4956,1.5601465201465199
4957,1.5488644688644688
4958,1.531135531135531
4959,1.5166300366300365
4960,1.4997069597069594
4961,1.5166300366300365
4962,1.4827838827838828
4963,1.4843956043956044
4964,1.4819780219780219
4965,1.473113553113553
4966,1.4852014652014651
4967,1.4803663003663001
4968,1.4819780219780219
4969,1.4843956043956044
4970,1.4884249084249084
4971,1.5045421245421244
4972,1.5021245421245422
4973,1.5158241758241757
4974,1.5408058608058606
4975,1.5488644688644688
4976,1.5472527472527473
4977,1.5665934065934066
4978,1.5657875457875456
4979,1.5746520146520147
4980,1.589157509157509
4981,1.5875457875457875
4982,1.585128205128205
4983,1.581904761904762
4984,1.585128205128205
4985,1.5754578754578754
4986,1.564175824175824
4987,1.5545054945054944
4988,1.5561172161172159
4989,1.5359706959706958
4990,1.5166300366300365
4991,1.5021245421245422
4992,1.5005128205128204
4993,1.477142857142857
4994,1.477142857142857
4995,1.4715018315018313
4996,1.4666666666666666
4997,1.4674725274725273
4998,1.469084249084249
4999,1.477142857142857
