indice,voltaje
0,1.8518681318681318
1,1.8961904761904762
2,1.9389010989010986
3,1.9816117216117215
4,2.021098901098901
5,2.0549450549450547
6,2.0775091575091573
7,2.092014652014652
8,2.092014652014652
9,2.0815384615384613
10,2.058168498168498
11,2.023516483516483
12,1.9824175824175825
13,1.9324542124542123
14,1.8744322344322342
15,1.8172161172161172
16,1.7583882783882783
17,1.6963369963369963
18,1.635091575091575
19,1.5778754578754577
20,1.5238827838827838
21,1.4747252747252748
22,1.432014652014652
23,1.394139194139194
24,1.3635164835164835
25,1.3385347985347984
26,1.3208058608058608
27,1.3079120879120878
28,1.302271062271062
29,1.303076923076923
30,1.3087179487179488
31,1.3199999999999998
32,1.3361172161172161
33,1.3562637362637362
34,1.3828571428571428
35,1.4102564102564104
36,1.4408791208791207
37,1.4747252747252748
38,1.5093772893772892
39,1.5440293040293038
40,1.5786813186813187
41,1.6133333333333333
42,1.6471794871794871
43,1.6802197802197802
44,1.7100366300366299
45,1.7406593406593407
46,1.767252747252747
47,1.7922344322344321
48,1.8147985347985347
49,1.8365567765567765
50,1.8550915750915749
51,1.8712087912087911
52,1.884908424908425
53,1.8978021978021977
54,1.9066666666666665
55,1.9123076923076923
56,1.9163369963369963
57,1.917948717948718
58,1.9195604395604395
59,1.9123076923076923
60,1.9058608058608058
61,1.8978021978021977
62,1.888131868131868
63,1.8768498168498169
64,1.8671794871794871
65,1.854285714285714
66,1.8454212454212455
67,1.834139194139194
68,1.8236630036630035
69,1.8099633699633697
70,1.7954578754578754
71,1.7769230769230768
72,1.759194139194139
73,1.7406593406593407
74,1.7293772893772892
75,1.7019780219780218
76,1.6810256410256408
77,1.6697435897435897
78,1.6528205128205127
79,1.6383150183150181
80,1.6278388278388278
81,1.6157509157509158
82,1.6076923076923078
83,1.602051282051282
84,1.601245421245421
85,1.5947985347985347
86,1.597216117216117
87,1.6004395604395603
88,1.6044688644688643
89,1.6093040293040293
90,1.6149450549450548
91,1.6197802197802198
92,1.6254212454212453
93,1.6286446886446884
94,1.6334798534798534
95,1.6399267399267399
96,1.647985347985348
97,1.6592673992673992
98,1.6632967032967032
99,1.6713553113553112
100,1.6592673992673992
101,1.6834432234432235
102,1.6915018315018315
103,1.6987545787545786
104,1.7068131868131868
105,1.7132600732600731
106,1.7197069597069596
107,1.7285714285714286
108,1.7358241758241757
109,1.7414652014652012
110,1.743882783882784
111,1.7487179487179487
112,1.751941391941392
113,1.755164835164835
114,1.755970695970696
115,1.76
116,1.7616117216117215
117,1.763223443223443
118,1.7624175824175823
119,1.7583882783882783
120,1.7535531135531133
121,1.7487179487179487
122,1.7398534798534797
123,1.7317948717948717
124,1.7237362637362637
125,1.7140659340659339
126,1.705201465201465
127,1.6955311355311355
128,1.6866666666666665
129,1.6761904761904762
130,1.6689377289377287
131,1.6616849816849815
132,1.6552380952380952
133,1.6487912087912087
134,1.6455677655677654
135,1.6423443223443221
136,1.6407326007326006
137,1.6391208791208791
138,1.6367032967032966
139,1.6383150183150181
140,1.6375091575091574
141,1.6391208791208791
142,1.6407326007326006
143,1.6415384615384614
144,1.6455677655677654
145,1.6471794871794871
146,1.6512087912087912
147,1.6528205128205127
148,1.6552380952380952
149,1.6568498168498167
150,1.6584615384615384
151,1.6584615384615384
152,1.6624908424908424
153,1.6600732600732602
154,1.6608791208791207
155,1.6600732600732602
156,1.6649084249084247
157,1.6608791208791207
158,1.6632967032967032
159,1.6641025641025642
160,1.6681318681318682
161,1.6721611721611722
162,1.6769963369963368
163,1.6826373626373625
164,1.6898901098901098
165,1.6979487179487178
166,1.7068131868131868
167,1.7156776556776556
168,1.7342124542124542
169,1.7358241758241757
170,1.7463003663003662
171,1.755164835164835
172,1.7648351648351648
173,1.772087912087912
174,1.7616117216117215
175,1.7857875457875456
176,1.7906227106227104
177,1.7946520146520146
178,1.7978754578754577
179,1.7994871794871794
180,1.8010989010989011
181,1.8027106227106227
182,1.7986813186813186
183,1.7986813186813186
184,1.7946520146520146
185,1.789010989010989
186,1.7817582417582416
187,1.7696703296703296
188,1.7648351648351648
189,1.7543589743589743
190,1.743882783882784
191,1.7342124542124542
192,1.7205128205128206
193,1.7084249084249084
194,1.6915018315018315
195,1.6810256410256408
196,1.6632967032967032
197,1.6528205128205127
198,1.6399267399267399
199,1.627032967032967
200,1.6165567765567763
201,1.606080586080586
202,1.5996336996336997
203,1.5947985347985347
204,1.5923809523809522
205,1.5923809523809522
206,1.5947985347985347
207,1.6004395604395603
208,1.6068864468864468
209,1.6149450549450548
210,1.623003663003663
211,1.6334798534798534
212,1.6447619047619046
213,1.6576556776556775
214,1.6697435897435897
215,1.6810256410256408
216,1.6906959706959706
217,1.6995604395604396
218,1.7027838827838826
219,1.705201465201465
220,1.7060073260073259
221,1.7035897435897436
222,1.7003663003663003
223,1.6955311355311355
224,1.6898901098901098
225,1.6834432234432235
226,1.6761904761904762
227,1.6705494505494505
228,1.6665201465201465
229,1.6616849816849815
230,1.6584615384615384
231,1.6568498168498167
232,1.6544322344322344
233,1.652014652014652
234,1.6512087912087912
235,1.647985347985348
236,1.6471794871794871
237,1.6447619047619046
238,1.6431501831501831
239,1.6407326007326006
240,1.6383150183150181
241,1.635091575091575
242,1.6326739926739926
243,1.6278388278388278
244,1.6213919413919413
245,1.6205860805860803
246,1.6165567765567763
247,1.614139194139194
248,1.6109157509157508
249,1.6109157509157508
250,1.6093040293040293
251,1.6093040293040293
252,1.61010989010989
253,1.6109157509157508
254,1.6125274725274723
255,1.6125274725274723
256,1.614139194139194
257,1.6173626373626373
258,1.6149450549450548
259,1.623003663003663
260,1.626227106227106
261,1.6286446886446884
262,1.618974358974359
263,1.6318681318681318
264,1.6318681318681318
265,1.631062271062271
266,1.6294505494505493
267,1.6278388278388278
268,1.6068864468864468
269,1.623003663003663
270,1.618168498168498
271,1.618168498168498
272,1.6165567765567763
273,1.614139194139194
274,1.6117216117216118
275,1.6109157509157508
276,1.5923809523809522
277,1.6109157509157508
278,1.6109157509157508
279,1.6109157509157508
280,1.6133333333333333
281,1.614139194139194
282,1.6157509157509158
283,1.6157509157509158
284,1.6165567765567763
285,1.6165567765567763
286,1.6157509157509158
287,1.6173626373626373
288,1.618168498168498
289,1.6197802197802198
290,1.6165567765567763
291,1.618974358974359
292,1.6173626373626373
293,1.6157509157509158
294,1.6149450549450548
295,1.6117216117216118
296,1.61010989010989
297,1.605274725274725
298,1.602051282051282
299,1.5988278388278387
300,1.593992673992674
301,1.589157509157509
302,1.585128205128205
303,1.5802930402930402
304,1.5746520146520147
305,1.5706227106227106
306,1.5665934065934066
307,1.564175824175824
308,1.5617582417582416
309,1.5617582417582416
310,1.5593406593406594
311,1.5577289377289376
312,1.5585347985347986
313,1.5617582417582416
314,1.5625641025641026
315,1.568205128205128
316,1.5673992673992674
317,1.5714285714285714
318,1.573040293040293
319,1.5762637362637362
320,1.5778754578754577
321,1.581098901098901
322,1.5827106227106227
323,1.5835164835164834
324,1.5843223443223442
325,1.5843223443223442
326,1.5843223443223442
327,1.5835164835164834
328,1.5835164835164834
329,1.581904761904762
330,1.581098901098901
331,1.581904761904762
332,1.581904761904762
333,1.5835164835164834
334,1.5843223443223442
335,1.585128205128205
336,1.5875457875457875
337,1.5907692307692307
338,1.593992673992674
339,1.5956043956043957
340,1.6004395604395603
341,1.6036630036630037
342,1.6076923076923078
343,1.6109157509157508
344,1.6149450549450548
345,1.6197802197802198
346,1.623003663003663
347,1.627032967032967
348,1.63025641025641
349,1.6334798534798534
350,1.6367032967032966
351,1.6399267399267399
352,1.6431501831501831
353,1.6463736263736264
354,1.6512087912087912
355,1.6536263736263734
356,1.6576556776556775
357,1.6608791208791207
358,1.6632967032967032
359,1.6673260073260072
360,1.6721611721611722
361,1.6778021978021977
362,1.6826373626373625
363,1.6882783882783883
364,1.6939194139194138
365,1.7027838827838826
366,1.7060073260073259
367,1.709230769230769
368,1.7124542124542124
369,1.7148717948717949
370,1.7156776556776556
371,1.7164835164835164
372,1.7172893772893771
373,1.7172893772893771
374,1.7164835164835164
375,1.7164835164835164
376,1.7164835164835164
377,1.7172893772893771
378,1.7148717948717949
379,1.7140659340659339
380,1.7124542124542124
381,1.7100366300366299
382,1.709230769230769
383,1.709230769230769
384,1.7068131868131868
385,1.7060073260073259
386,1.7060073260073259
387,1.7003663003663003
388,1.7019780219780218
389,1.7068131868131868
390,1.7100366300366299
391,1.7140659340659339
392,1.718095238095238
393,1.722930402930403
394,1.7277655677655677
395,1.7293772893772892
396,1.7342124542124542
397,1.735018315018315
398,1.697142857142857
399,1.7382417582417582
400,1.7382417582417582
401,1.7374358974358972
402,1.739047619047619
403,1.7334065934065932
404,1.7326007326007327
405,1.7285714285714286
406,1.726959706959707
407,1.7213186813186812
408,1.7164835164835164
409,1.7124542124542124
410,1.7076190476190476
411,1.705201465201465
412,1.7043956043956043
413,1.7035897435897436
414,1.705201465201465
415,1.7060073260073259
416,1.7084249084249084
417,1.7100366300366299
418,1.7116483516483516
419,1.7148717948717949
420,1.7197069597069596
421,1.722930402930403
422,1.726153846153846
423,1.7326007326007327
424,1.739047619047619
425,1.7463003663003662
426,1.7527472527472527
427,1.76
428,1.767252747252747
429,1.7736996336996336
430,1.7825641025641024
431,1.7857875457875456
432,1.7898168498168496
433,1.7906227106227104
434,1.7914285714285714
435,1.7906227106227104
436,1.7882051282051281
437,1.784981684981685
438,1.7809523809523808
439,1.7712820512820513
440,1.763223443223443
441,1.7527472527472527
442,1.7422710622710622
443,1.7342124542124542
444,1.7253479853479852
445,1.7189010989010989
446,1.7164835164835164
447,1.7140659340659339
448,1.7148717948717949
449,1.718095238095238
450,1.7205128205128206
451,1.7277655677655677
452,1.7334065934065932
453,1.7422710622710622
454,1.747912087912088
455,1.751941391941392
456,1.7543589743589743
457,1.7567765567765568
458,1.7583882783882783
459,1.7583882783882783
460,1.7648351648351648
461,1.7583882783882783
462,1.7575824175824175
463,1.7543589743589743
464,1.7535531135531133
465,1.7495238095238093
466,1.7446886446886447
467,1.7414652014652012
468,1.7382417582417582
469,1.7342124542124542
470,1.730989010989011
471,1.726959706959707
472,1.722930402930403
473,1.7197069597069596
474,1.718095238095238
475,1.7156776556776556
476,1.7140659340659339
477,1.7156776556776556
478,1.7164835164835164
479,1.718095238095238
480,1.7213186813186812
481,1.7213186813186812
482,1.722124542124542
483,1.722930402930403
484,1.7245421245421246
485,1.726153846153846
486,1.7293772893772892
487,1.7326007326007327
488,1.7374358974358972
489,1.7406593406593407
490,1.7358241758241757
491,1.747912087912088
492,1.7495238095238093
493,1.7575824175824175
494,1.7656410256410255
495,1.7736996336996336
496,1.7865934065934064
497,1.7970695970695971
498,1.8107692307692307
499,1.826080586080586
500,1.842197802197802
501,1.8567032967032966
502,1.8986080586080585
503,1.884102564102564
504,1.8953846153846152
505,1.9026373626373625
506,1.9066666666666665
507,1.9074725274725273
508,1.8994139194139192
509,1.8994139194139192
510,1.8897435897435897
511,1.8776556776556776
512,1.8615384615384616
513,1.8430036630036628
514,1.826080586080586
515,1.8075457875457874
516,1.7898168498168496
517,1.7728937728937728
518,1.7616117216117215
519,1.7414652014652012
520,1.726959706959707
521,1.7172893772893771
522,1.7060073260073259
523,1.6995604395604396
524,1.6979487179487178
525,1.6923076923076923
526,1.6931135531135528
527,1.6939194139194138
528,1.6979487179487178
529,1.7027838827838826
530,1.7084249084249084
531,1.7164835164835164
532,1.7237362637362637
533,1.730989010989011
534,1.739047619047619
535,1.747106227106227
536,1.743882783882784
537,1.7575824175824175
538,1.7624175824175823
539,1.7656410256410255
540,1.7704761904761903
541,1.772087912087912
542,1.7745054945054943
543,1.7769230769230768
544,1.7793406593406593
545,1.7817582417582416
546,1.7817582417582416
547,1.7857875457875456
548,1.789010989010989
549,1.7922344322344321
550,1.7938461538461536
551,1.7954578754578754
552,1.7962637362637361
553,1.7978754578754577
554,1.8002930402930402
555,1.8019047619047617
556,1.8051282051282052
557,1.8083516483516484
558,1.8107692307692307
559,1.8139926739926737
560,1.8164102564102564
561,1.8196336996336995
562,1.8236630036630035
563,1.826080586080586
564,1.8276923076923075
565,1.83010989010989
566,1.8284981684981685
567,1.826080586080586
568,1.8236630036630035
569,1.8188278388278387
570,1.8139926739926737
571,1.8083516483516484
572,1.8027106227106227
573,1.7962637362637361
574,1.7898168498168496
575,1.7825641025641024
576,1.7753113553113553
577,1.767252747252747
578,1.7648351648351648
579,1.7567765567765568
580,1.7487179487179487
581,1.747912087912088
582,1.743882783882784
583,1.7398534798534797
584,1.7382417582417582
585,1.7366300366300367
586,1.7366300366300367
587,1.7374358974358972
588,1.7398534798534797
589,1.743076923076923
590,1.7487179487179487
591,1.7535531135531133
592,1.76
593,1.768058608058608
594,1.7777289377289376
595,1.784175824175824
596,1.7922344322344321
597,1.8019047619047617
598,1.8115750915750914
599,1.8196336996336995
600,1.8276923076923075
601,1.8349450549450548
602,1.8413919413919413
603,1.8470329670329668
604,1.8518681318681318
605,1.854285714285714
606,1.8550915750915749
607,1.8550915750915749
608,1.8526739926739926
609,1.8478388278388278
610,1.8438095238095238
611,1.838168498168498
612,1.8357509157509158
613,1.8325274725274725
614,1.8293040293040292
615,1.8276923076923075
616,1.8228571428571427
617,1.8244688644688645
618,1.8228571428571427
619,1.8236630036630035
620,1.8236630036630035
621,1.8236630036630035
622,1.8276923076923075
623,1.8317216117216117
624,1.8389743589743588
625,1.846227106227106
626,1.8534798534798536
627,1.8599267399267398
628,1.8663736263736261
629,1.872014652014652
630,1.8776556776556776
631,1.8824908424908424
632,1.8857142857142857
633,1.8905494505494504
634,1.8961904761904762
635,1.8994139194139192
636,1.9042490842490842
637,1.9066666666666665
638,1.90989010989011
639,1.9066666666666665
640,1.9106959706959705
641,1.90989010989011
642,1.90989010989011
643,1.9082783882783882
644,1.905054945054945
645,1.901025641025641
646,1.884102564102564
647,1.8913553113553112
648,1.8873260073260072
649,1.8784615384615382
650,1.872014652014652
651,1.8655677655677656
652,1.8567032967032966
653,1.8510622710622708
654,1.8405860805860805
655,1.8325274725274725
656,1.8188278388278387
657,1.8091575091575092
658,1.8002930402930402
659,1.7833699633699633
660,1.7696703296703296
661,1.755970695970696
662,1.7422710622710622
663,1.7277655677655677
664,1.7164835164835164
665,1.6995604395604396
666,1.6858608058608058
667,1.6745787545787545
668,1.6657142857142855
669,1.6568498168498167
670,1.652014652014652
671,1.6487912087912087
672,1.6504029304029304
673,1.6584615384615384
674,1.6657142857142855
675,1.6737728937728937
676,1.6850549450549448
677,1.697142857142857
678,1.7108424908424908
679,1.7253479853479852
680,1.7406593406593407
681,1.755970695970696
682,1.772087912087912
683,1.7873992673992674
684,1.8002930402930402
685,1.8123809523809524
686,1.8196336996336995
687,1.826080586080586
688,1.83010989010989
689,1.8293040293040292
690,1.8244688644688645
691,1.8156043956043955
692,1.8043223443223442
693,1.7914285714285714
694,1.7777289377289376
695,1.7648351648351648
696,1.7535531135531133
697,1.7374358974358972
698,1.726153846153846
699,1.7140659340659339
700,1.7068131868131868
701,1.7003663003663003
702,1.6963369963369963
703,1.6931135531135528
704,1.6866666666666665
705,1.6882783882783883
706,1.6858608058608058
707,1.6826373626373625
708,1.6761904761904762
709,1.6778021978021977
710,1.6778021978021977
711,1.6769963369963368
712,1.6761904761904762
713,1.6769963369963368
714,1.6761904761904762
715,1.6761904761904762
716,1.6769963369963368
717,1.6778021978021977
718,1.6818315018315018
719,1.6834432234432235
720,1.6866666666666665
721,1.6898901098901098
722,1.6979487179487178
723,1.6963369963369963
724,1.7003663003663003
725,1.7019780219780218
726,1.7035897435897436
727,1.7043956043956043
728,1.7043956043956043
729,1.7027838827838826
730,1.7027838827838826
731,1.7027838827838826
732,1.7019780219780218
733,1.7027838827838826
734,1.7027838827838826
735,1.7043956043956043
736,1.7068131868131868
737,1.7084249084249084
738,1.7108424908424908
739,1.7140659340659339
740,1.7172893772893771
741,1.7197069597069596
742,1.7253479853479852
743,1.73018315018315
744,1.7342124542124542
745,1.7398534798534797
746,1.7463003663003662
747,1.7527472527472527
748,1.7575824175824175
749,1.7608058608058608
750,1.7624175824175823
751,1.768058608058608
752,1.7688644688644688
753,1.7712820512820513
754,1.772087912087912
755,1.7728937728937728
756,1.7728937728937728
757,1.7728937728937728
758,1.7745054945054943
759,1.7753113553113553
760,1.7753113553113553
761,1.7769230769230768
762,1.7777289377289376
763,1.7793406593406593
764,1.7777289377289376
765,1.7777289377289376
766,1.7753113553113553
767,1.7728937728937728
768,1.7704761904761903
769,1.768058608058608
770,1.7656410256410255
771,1.764029304029304
772,1.763223443223443
773,1.7624175824175823
774,1.7624175824175823
775,1.7616117216117215
776,1.7583882783882783
777,1.763223443223443
778,1.763223443223443
779,1.763223443223443
780,1.764029304029304
781,1.7656410256410255
782,1.768058608058608
783,1.767252747252747
784,1.7688644688644688
785,1.7688644688644688
786,1.7688644688644688
787,1.7688644688644688
788,1.768058608058608
789,1.7696703296703296
790,1.7704761904761903
791,1.7704761904761903
792,1.772087912087912
793,1.776117216117216
794,1.7833699633699633
795,1.7906227106227104
796,1.8010989010989011
797,1.8099633699633697
798,1.8212454212454212
799,1.8309157509157508
800,1.8430036630036628
801,1.8567032967032966
802,1.8671794871794871
803,1.880879120879121
804,1.8961904761904762
805,1.9082783882783882
806,1.921172161172161
807,1.9308424908424906
808,1.9356776556776556
809,1.9364835164835164
810,1.9324542124542123
811,1.9227838827838826
812,1.9082783882783882
813,1.892161172161172
814,1.8736263736263736
815,1.8494505494505495
816,1.8228571428571427
817,1.793040293040293
818,1.7616117216117215
819,1.730989010989011
820,1.6987545787545786
821,1.6689377289377287
822,1.6399267399267399
823,1.6093040293040293
824,1.5827106227106227
825,1.568205128205128
826,1.5488644688644688
827,1.5303296703296703
828,1.5134065934065932
829,1.4980952380952381
830,1.4860073260073259
831,1.476336996336996
832,1.469084249084249
833,1.4658608058608058
834,1.4658608058608058
835,1.469084249084249
836,1.476336996336996
837,1.4843956043956044
838,1.4964835164835164
839,1.510989010989011
840,1.527106227106227
841,1.5456410256410256
842,1.5657875457875456
843,1.5875457875457875
844,1.6084981684981683
845,1.6286446886446884
846,1.6487912087912087
847,1.6697435897435897
848,1.6874725274725275
849,1.7043956043956043
850,1.7197069597069596
851,1.7317948717948717
852,1.7422710622710622
853,1.747106227106227
854,1.7503296703296702
855,1.7495238095238093
856,1.747912087912088
857,1.7454945054945052
858,1.7414652014652012
859,1.7317948717948717
860,1.722930402930403
861,1.7124542124542124
862,1.6995604395604396
863,1.6882783882783883
864,1.6705494505494505
865,1.6616849816849815
866,1.6495970695970694
867,1.6383150183150181
868,1.627032967032967
869,1.6165567765567763
870,1.606080586080586
871,1.5964102564102562
872,1.5875457875457875
873,1.5778754578754577
874,1.5722344322344322
875,1.5673992673992674
876,1.5649816849816849
877,1.5625641025641026
878,1.564175824175824
879,1.5673992673992674
880,1.5706227106227106
881,1.5746520146520147
882,1.5802930402930402
883,1.5875457875457875
884,1.593186813186813
885,1.6004395604395603
886,1.61010989010989
887,1.618168498168498
888,1.6254212454212453
889,1.6326739926739926
890,1.6375091575091574
891,1.6407326007326006
892,1.6294505494505493
893,1.6423443223443221
894,1.6423443223443221
895,1.6383150183150181
896,1.6358974358974359
897,1.6326739926739926
898,1.6294505494505493
899,1.6254212454212453
900,1.6213919413919413
901,1.618974358974359
902,1.6149450549450548
903,1.6125274725274723
904,1.6109157509157508
905,1.6076923076923078
906,1.6084981684981683
907,1.606080586080586
908,1.6044688644688643
909,1.602051282051282
910,1.597216117216117
911,1.597216117216117
912,1.5915750915750915
913,1.589157509157509
914,1.5883516483516482
915,1.5883516483516482
916,1.5883516483516482
917,1.5923809523809522
918,1.598021978021978
919,1.6044688644688643
920,1.6117216117216118
921,1.6213919413919413
922,1.6294505494505493
923,1.6367032967032966
924,1.6455677655677654
925,1.6536263736263734
926,1.6592673992673992
927,1.6649084249084247
928,1.6681318681318682
929,1.6665201465201465
930,1.6657142857142855
931,1.6624908424908424
932,1.6584615384615384
933,1.6536263736263734
934,1.652014652014652
935,1.6399267399267399
936,1.631062271062271
937,1.6205860805860803
938,1.6093040293040293
939,1.5964102564102562
940,1.5835164835164834
941,1.5698168498168497
942,1.5569230769230769
943,1.5448351648351648
944,1.5351648351648353
945,1.5279120879120878
946,1.523076923076923
947,1.5222710622710622
948,1.523076923076923
949,1.5238827838827838
950,1.531135531135531
951,1.5399999999999998
952,1.5528937728937728
953,1.5649816849816849
954,1.5802930402930402
955,1.598021978021978
956,1.6133333333333333
957,1.6294505494505493
958,1.6463736263736264
959,1.6641025641025642
960,1.6769963369963368
961,1.6939194139194138
962,1.7100366300366299
963,1.722930402930403
964,1.7342124542124542
965,1.7406593406593407
966,1.7495238095238093
967,1.7535531135531133
968,1.755970695970696
969,1.7567765567765568
970,1.7495238095238093
971,1.747912087912088
972,1.7406593406593407
973,1.7326007326007327
974,1.7277655677655677
975,1.722930402930403
976,1.722124542124542
977,1.722124542124542
978,1.7245421245421246
979,1.73018315018315
980,1.7358241758241757
981,1.743076923076923
982,1.7535531135531133
983,1.7608058608058608
984,1.768058608058608
985,1.7745054945054943
986,1.776117216117216
987,1.772087912087912
988,1.768058608058608
989,1.7567765567765568
990,1.743882783882784
991,1.7293772893772892
992,1.7116483516483516
993,1.6906959706959706
994,1.6665201465201465
995,1.6399267399267399
996,1.6125274725274723
997,1.585128205128205
998,1.5577289377289376
999,1.5238827838827838
1000,1.4972893772893772
1001,1.468278388278388
1002,1.4449084249084247
1003,1.423956043956044
1004,1.4094505494505494
1005,1.398168498168498
1006,1.3707692307692305
1007,1.3812454212454213
1008,1.3715750915750915
1009,1.3707692307692305
1010,1.36996336996337
1011,1.3731868131868132
1012,1.3788278388278385
1013,1.3844688644688643
1014,1.3949450549450548
1015,1.4046153846153846
1016,1.415091575091575
1017,1.427179487179487
1018,1.44007326007326
1019,1.4545787545787545
1020,1.469084249084249
1021,1.4819780219780219
1022,1.4980952380952381
1023,1.5126007326007325
1024,1.527106227106227
1025,1.5408058608058606
1026,1.5553113553113553
1027,1.568205128205128
1028,1.5802930402930402
1029,1.5923809523809522
1030,1.6028571428571428
1031,1.6109157509157508
1032,1.6205860805860803
1033,1.6278388278388278
1034,1.6342857142857141
1035,1.6367032967032966
1036,1.6391208791208791
1037,1.6399267399267399
1038,1.6391208791208791
1039,1.6358974358974359
1040,1.6318681318681318
1041,1.626227106227106
1042,1.6197802197802198
1043,1.6133333333333333
1044,1.606080586080586
1045,1.598021978021978
1046,1.5923809523809522
1047,1.5802930402930402
1048,1.5706227106227106
1049,1.5609523809523809
1050,1.5512820512820513
1051,1.5440293040293038
1052,1.5375824175824175
1053,1.5295238095238095
1054,1.5246886446886445
1055,1.519047619047619
1056,1.5142124542124542
1057,1.5093772893772892
1058,1.5037362637362635
1059,1.4980952380952381
1060,1.4908424908424909
1061,1.4868131868131869
1062,1.4827838827838828
1063,1.4803663003663001
1064,1.4779487179487178
1065,1.477142857142857
1066,1.4779487179487178
1067,1.4779487179487178
1068,1.4787545787545788
1069,1.4803663003663001
1070,1.481172161172161
1071,1.4803663003663001
1072,1.481172161172161
1073,1.4884249084249084
1074,1.4908424908424909
1075,1.4956776556776554
1076,1.5013186813186812
1077,1.506959706959707
1078,1.5158241758241757
1079,1.5222710622710622
1080,1.531135531135531
1081,1.5391941391941393
1082,1.5480586080586078
1083,1.5561172161172159
1084,1.5649816849816849
1085,1.5722344322344322
1086,1.5802930402930402
1087,1.5875457875457875
1088,1.5947985347985347
1089,1.601245421245421
1090,1.6068864468864468
1091,1.6125274725274723
1092,1.618168498168498
1093,1.623003663003663
1094,1.627032967032967
1095,1.6318681318681318
1096,1.6358974358974359
1097,1.6367032967032966
1098,1.6383150183150181
1099,1.6367032967032966
1100,1.6334798534798534
1101,1.626227106227106
1102,1.6133333333333333
1103,1.598021978021978
1104,1.581904761904762
1105,1.5657875457875456
1106,1.5488644688644688
1107,1.5319413919413918
1108,1.5158241758241757
1109,1.4997069597069594
1110,1.4876190476190474
1111,1.4779487179487178
1112,1.4715018315018313
1113,1.468278388278388
1114,1.464249084249084
1115,1.4618315018315018
1116,1.46021978021978
1117,1.456190476190476
1118,1.456996336996337
1119,1.4586080586080585
1120,1.461025641025641
1121,1.464249084249084
1122,1.469084249084249
1123,1.477142857142857
1124,1.4884249084249084
1125,1.5021245421245422
1126,1.5198534798534797
1127,1.5408058608058606
1128,1.5649816849816849
1129,1.5923809523809522
1130,1.6197802197802198
1131,1.6455677655677654
1132,1.6713553113553112
1133,1.6939194139194138
1134,1.7100366300366299
1135,1.726959706959707
1136,1.7398534798534797
1137,1.7487179487179487
1138,1.7543589743589743
1139,1.7567765567765568
1140,1.7575824175824175
1141,1.755970695970696
1142,1.7527472527472527
1143,1.7454945054945052
1144,1.7358241758241757
1145,1.7197069597069596
1146,1.7003663003663003
1147,1.6761904761904762
1148,1.6407326007326006
1149,1.6157509157509158
1150,1.581904761904762
1151,1.5448351648351648
1152,1.5061538461538462
1153,1.4666666666666666
1154,1.427985347985348
1155,1.3917216117216116
1156,1.357069597069597
1157,1.3272527472527471
1158,1.3014652014652015
1159,1.282124542124542
1160,1.2676190476190474
1161,1.2587545787545786
1162,1.2539194139194136
1163,1.2547252747252746
1164,1.2595604395604394
1165,1.2684249084249084
1166,1.2813186813186814
1167,1.299047619047619
1168,1.3224175824175823
1169,1.345787545787546
1170,1.3683516483516482
1171,1.3989743589743588
1172,1.4263736263736264
1173,1.4537728937728938
1174,1.4803663003663001
1175,1.5061538461538462
1176,1.5319413919413918
1177,1.5536996336996336
1178,1.5738461538461537
1179,1.589157509157509
1180,1.6044688644688643
1181,1.6157509157509158
1182,1.6246153846153844
1183,1.6326739926739926
1184,1.6383150183150181
1185,1.6415384615384614
1186,1.6423443223443221
1187,1.6415384615384614
1188,1.6383150183150181
1189,1.6294505494505493
1190,1.627032967032967
1191,1.618974358974359
1192,1.61010989010989
1193,1.6004395604395603
1194,1.5907692307692307
1195,1.5794871794871794
1196,1.5673992673992674
1197,1.5561172161172159
1198,1.5504761904761903
1199,1.5343589743589743
1200,1.5238827838827838
1201,1.515018315018315
1202,1.5085714285714285
1203,1.502930402930403
1204,1.4972893772893772
1205,1.4908424908424909
1206,1.4868131868131869
1207,1.4876190476190474
1208,1.4876190476190474
1209,1.4868131868131869
1210,1.4876190476190474
1211,1.4884249084249084
1212,1.4884249084249084
1213,1.4892307692307691
1214,1.49003663003663
1215,1.4908424908424909
1216,1.4924542124542124
1217,1.4956776556776554
1218,1.4835897435897434
1219,1.5045421245421244
1220,1.5101831501831502
1221,1.5158241758241757
1222,1.5214652014652015
1223,1.5263003663003663
1224,1.5287179487179485
1225,1.5295238095238095
1226,1.5279120879120878
1227,1.5263003663003663
1228,1.5238827838827838
1229,1.523076923076923
1230,1.5222710622710622
1231,1.5206593406593405
1232,1.5222710622710622
1233,1.5238827838827838
1234,1.523076923076923
1235,1.523076923076923
1236,1.5198534798534797
1237,1.5254945054945055
1238,1.5279120879120878
1239,1.5335531135531135
1240,1.5399999999999998
1241,1.5440293040293038
1242,1.5569230769230769
1243,1.5714285714285714
1244,1.5649816849816849
1245,1.5996336996336997
1246,1.614139194139194
1247,1.63025641025641
1248,1.6455677655677654
1249,1.6608791208791207
1250,1.6745787545787545
1251,1.6802197802197802
1252,1.6842490842490843
1253,1.6842490842490843
1254,1.6786080586080585
1255,1.6689377289377287
1256,1.6487912087912087
1257,1.63025641025641
1258,1.605274725274725
1259,1.577069597069597
1260,1.5496703296703296
1261,1.527106227106227
1262,1.5037362637362635
1263,1.4843956043956044
1264,1.465054945054945
1265,1.4473260073260072
1266,1.431208791208791
1267,1.4134798534798534
1268,1.3957509157509156
1269,1.3788278388278385
1270,1.3602930402930402
1271,1.3441758241758242
1272,1.3304761904761904
1273,1.3175824175824176
1274,1.3087179487179488
1275,1.3038827838827838
1276,1.2974358974358975
1277,1.2974358974358975
1278,1.299047619047619
1279,1.302271062271062
1280,1.3095238095238095
1281,1.3167765567765568
1282,1.3296703296703296
1283,1.3425641025641024
1284,1.3586813186813185
1285,1.3772161172161173
1286,1.3965567765567766
1287,1.4207326007326007
1288,1.444102564102564
1289,1.469084249084249
1290,1.4972893772893772
1291,1.5254945054945055
1292,1.5528937728937728
1293,1.5786813186813187
1294,1.6004395604395603
1295,1.6173626373626373
1296,1.6286446886446884
1297,1.6358974358974359
1298,1.6383150183150181
1299,1.6375091575091574
1300,1.6326739926739926
1301,1.626227106227106
1302,1.6165567765567763
1303,1.6036630036630037
1304,1.5907692307692307
1305,1.5762637362637362
1306,1.5875457875457875
1307,1.5456410256410256
1308,1.5319413919413918
1309,1.5222710622710622
1310,1.510989010989011
1311,1.502930402930403
1312,1.4956776556776554
1313,1.4916483516483514
1314,1.4868131868131869
1315,1.4843956043956044
1316,1.4803663003663001
1317,1.4755311355311354
1318,1.468278388278388
1319,1.4634432234432233
1320,1.46021978021978
1321,1.4553846153846153
1322,1.4497435897435897
1323,1.443296703296703
1324,1.435238095238095
1325,1.4287912087912087
1326,1.4223443223443224
1327,1.419120879120879
1328,1.4134798534798534
1329,1.415091575091575
1330,1.415091575091575
1331,1.4134798534798534
1332,1.4134798534798534
1333,1.4126739926739926
1334,1.4118681318681316
1335,1.411062271062271
1336,1.4126739926739926
1337,1.415091575091575
1338,1.4183150183150184
1339,1.4223443223443224
1340,1.427985347985348
1341,1.4304029304029304
1342,1.4336263736263737
1343,1.4368498168498167
1344,1.439267399267399
1345,1.4408791208791207
1346,1.4408791208791207
1347,1.44007326007326
1348,1.4408791208791207
1349,1.4416849816849817
1350,1.443296703296703
1351,1.4465201465201465
1352,1.4505494505494505
1353,1.456190476190476
1354,1.4626373626373625
1355,1.4706959706959708
1356,1.4795604395604394
1357,1.4908424908424909
1358,1.4819780219780219
1359,1.5101831501831502
1360,1.5182417582417582
1361,1.5238827838827838
1362,1.5279120879120878
1363,1.5287179487179485
1364,1.527106227106227
1365,1.5246886446886445
1366,1.5174358974358972
1367,1.5093772893772892
1368,1.5021245421245422
1369,1.4932600732600732
1370,1.4868131868131869
1371,1.4787545787545788
1372,1.4747252747252748
1373,1.4698901098901098
1374,1.4674725274725273
1375,1.4666666666666666
1376,1.4666666666666666
1377,1.468278388278388
1378,1.4715018315018313
1379,1.473113553113553
1380,1.476336996336996
1381,1.4787545787545788
1382,1.4795604395604394
1383,1.4787545787545788
1384,1.476336996336996
1385,1.4715018315018313
1386,1.4666666666666666
1387,1.4618315018315018
1388,1.4586080586080585
1389,1.4537728937728938
1390,1.4505494505494505
1391,1.4457142857142857
1392,1.4424908424908425
1393,1.44007326007326
1394,1.4376556776556777
1395,1.436043956043956
1396,1.4376556776556777
1397,1.4424908424908425
1398,1.4489377289377288
1399,1.456190476190476
1400,1.4666666666666666
1401,1.4747252747252748
1402,1.4827838827838828
1403,1.49003663003663
1404,1.4972893772893772
1405,1.5053479853479852
1406,1.510989010989011
1407,1.5198534798534797
1408,1.5238827838827838
1409,1.5335531135531135
1410,1.5391941391941393
1411,1.5440293040293038
1412,1.5488644688644688
1413,1.5512820512820513
1414,1.5536996336996336
1415,1.5545054945054944
1416,1.5561172161172159
1417,1.5553113553113553
1418,1.5528937728937728
1419,1.5520879120879119
1420,1.5488644688644688
1421,1.5432234432234433
1422,1.5351648351648353
1423,1.5319413919413918
1424,1.523076923076923
1425,1.515018315018315
1426,1.5053479853479852
1427,1.4964835164835164
1428,1.4884249084249084
1429,1.477142857142857
1430,1.4706959706959708
1431,1.4626373626373625
1432,1.4594139194139193
1433,1.4545787545787545
1434,1.4513553113553113
1435,1.4505494505494505
1436,1.4497435897435897
1437,1.4505494505494505
1438,1.452161172161172
1439,1.456190476190476
1440,1.4618315018315018
1441,1.4674725274725273
1442,1.4698901098901098
1443,1.4803663003663001
1444,1.4876190476190474
1445,1.4940659340659341
1446,1.4980952380952381
1447,1.5053479853479852
1448,1.5101831501831502
1449,1.5126007326007325
1450,1.5158241758241757
1451,1.5198534798534797
1452,1.5222710622710622
1453,1.523076923076923
1454,1.5496703296703296
1455,1.5246886446886445
1456,1.5238827838827838
1457,1.5279120879120878
1458,1.527106227106227
1459,1.5327472527472525
1460,1.5351648351648353
1461,1.5367765567765566
1462,1.5399999999999998
1463,1.5432234432234433
1464,1.5464468864468863
1465,1.5464468864468863
1466,1.5488644688644688
1467,1.5432234432234433
1468,1.5408058608058606
1469,1.5279120879120878
1470,1.5174358974358972
1471,1.5037362637362635
1472,1.4868131868131869
1473,1.4698901098901098
1474,1.4505494505494505
1475,1.435238095238095
1476,1.419120879120879
1477,1.4038095238095236
1478,1.3909157509157508
1479,1.3772161172161173
1480,1.3635164835164835
1481,1.353040293040293
1482,1.3433699633699632
1483,1.3361172161172161
1484,1.332087912087912
1485,1.3312820512820511
1486,1.3336996336996336
1487,1.3401465201465201
1488,1.349010989010989
1489,1.361098901098901
1490,1.3772161172161173
1491,1.3965567765567766
1492,1.41992673992674
1493,1.444102564102564
1494,1.468278388278388
1495,1.4924542124542124
1496,1.5093772893772892
1497,1.5303296703296703
1498,1.5448351648351648
1499,1.5545054945054944
1500,1.5593406593406594
1501,1.5609523809523809
1502,1.5577289377289376
1503,1.5520879120879119
1504,1.5432234432234433
1505,1.5327472527472525
1506,1.5198534798534797
1507,1.506959706959707
1508,1.4932600732600732
1509,1.4803663003663001
1510,1.4674725274725273
1511,1.456190476190476
1512,1.4473260073260072
1513,1.435238095238095
1514,1.4263736263736264
1515,1.4167032967032966
1516,1.4102564102564104
1517,1.4030036630036629
1518,1.3973626373626373
1519,1.3933333333333333
1520,1.3925274725274723
1521,1.3909157509157508
1522,1.39010989010989
1523,1.3917216117216116
1524,1.394139194139194
1525,1.3965567765567766
1526,1.4005860805860806
1527,1.4046153846153846
1528,1.4086446886446886
1529,1.4142857142857144
1530,1.4207326007326007
1531,1.427985347985348
1532,1.435238095238095
1533,1.443296703296703
1534,1.4529670329670328
1535,1.461025641025641
1536,1.469084249084249
1537,1.476336996336996
1538,1.4827838827838828
1539,1.4892307692307691
1540,1.494871794871795
1541,1.498901098901099
1542,1.5037362637362635
1543,1.5077655677655677
1544,1.5093772893772892
1545,1.510989010989011
1546,1.5117948717948717
1547,1.5134065934065932
1548,1.510989010989011
1549,1.515018315018315
1550,1.5174358974358972
1551,1.519047619047619
1552,1.5206593406593405
1553,1.5222710622710622
1554,1.523076923076923
1555,1.5254945054945055
1556,1.5263003663003663
1557,1.527106227106227
1558,1.527106227106227
1559,1.5254945054945055
1560,1.5246886446886445
1561,1.5263003663003663
1562,1.5238827838827838
1563,1.5246886446886445
1564,1.5279120879120878
1565,1.5295238095238095
1566,1.5303296703296703
1567,1.5327472527472525
1568,1.5335531135531135
1569,1.5351648351648353
1570,1.5391941391941393
1571,1.5416117216117216
1572,1.5448351648351648
1573,1.5496703296703296
1574,1.5545054945054944
1575,1.5593406593406594
1576,1.5665934065934066
1577,1.569010989010989
1578,1.5722344322344322
1579,1.5714285714285714
1580,1.5698168498168497
1581,1.564175824175824
1582,1.5561172161172159
1583,1.5488644688644688
1584,1.5408058608058606
1585,1.5335531135531135
1586,1.5263003663003663
1587,1.5206593406593405
1588,1.5142124542124542
1589,1.5101831501831502
1590,1.5061538461538462
1591,1.502930402930403
1592,1.5021245421245422
1593,1.5021245421245422
1594,1.5037362637362635
1595,1.5061538461538462
1596,1.5085714285714285
1597,1.5117948717948717
1598,1.5158241758241757
1599,1.5206593406593405
1600,1.5279120879120878
1601,1.5343589743589743
1602,1.5432234432234433
1603,1.5528937728937728
1604,1.5601465201465199
1605,1.569010989010989
1606,1.5738461538461537
1607,1.5794871794871794
1608,1.5827106227106227
1609,1.5843223443223442
1610,1.5827106227106227
1611,1.585128205128205
1612,1.5835164835164834
1613,1.5827106227106227
1614,1.5794871794871794
1615,1.5762637362637362
1616,1.5714285714285714
1617,1.5657875457875456
1618,1.5609523809523809
1619,1.5553113553113553
1620,1.5496703296703296
1621,1.5464468864468863
1622,1.5408058608058606
1623,1.5375824175824175
1624,1.5343589743589743
1625,1.5327472527472525
1626,1.5303296703296703
1627,1.5295238095238095
1628,1.5303296703296703
1629,1.5327472527472525
1630,1.5359706959706958
1631,1.5440293040293038
1632,1.5520879120879119
1633,1.5593406593406594
1634,1.569010989010989
1635,1.5778754578754577
1636,1.585934065934066
1637,1.5907692307692307
1638,1.5947985347985347
1639,1.5964102564102562
1640,1.597216117216117
1641,1.5947985347985347
1642,1.593992673992674
1643,1.5907692307692307
1644,1.5883516483516482
1645,1.585128205128205
1646,1.5802930402930402
1647,1.573040293040293
1648,1.5673992673992674
1649,1.5593406593406594
1650,1.5561172161172159
1651,1.5520879120879119
1652,1.5480586080586078
1653,1.5448351648351648
1654,1.5416117216117216
1655,1.5416117216117216
1656,1.5375824175824175
1657,1.531135531135531
1658,1.5279120879120878
1659,1.5263003663003663
1660,1.523076923076923
1661,1.5198534798534797
1662,1.5174358974358972
1663,1.5158241758241757
1664,1.5142124542124542
1665,1.5134065934065932
1666,1.5117948717948717
1667,1.5126007326007325
1668,1.5117948717948717
1669,1.5126007326007325
1670,1.5142124542124542
1671,1.5134065934065932
1672,1.5158241758241757
1673,1.5182417582417582
1674,1.5198534798534797
1675,1.5214652014652015
1676,1.5238827838827838
1677,1.5295238095238095
1678,1.5279120879120878
1679,1.5303296703296703
1680,1.5335531135531135
1681,1.5367765567765566
1682,1.5416117216117216
1683,1.5448351648351648
1684,1.5496703296703296
1685,1.5553113553113553
1686,1.5577289377289376
1687,1.5617582417582416
1688,1.5673992673992674
1689,1.5698168498168497
1690,1.5722344322344322
1691,1.573040293040293
1692,1.5754578754578754
1693,1.577069597069597
1694,1.5802930402930402
1695,1.5794871794871794
1696,1.581904761904762
1697,1.5843223443223442
1698,1.589157509157509
1699,1.5915750915750915
1700,1.5947985347985347
1701,1.5964102564102562
1702,1.598021978021978
1703,1.5996336996336997
1704,1.598021978021978
1705,1.5956043956043957
1706,1.5923809523809522
1707,1.5875457875457875
1708,1.5827106227106227
1709,1.5802930402930402
1710,1.5746520146520147
1711,1.5665934065934066
1712,1.5617582417582416
1713,1.5561172161172159
1714,1.5496703296703296
1715,1.5464468864468863
1716,1.5440293040293038
1717,1.5424175824175823
1718,1.5440293040293038
1719,1.5464468864468863
1720,1.5359706959706958
1721,1.5569230769230769
1722,1.5617582417582416
1723,1.5657875457875456
1724,1.568205128205128
1725,1.5698168498168497
1726,1.569010989010989
1727,1.5649816849816849
1728,1.5601465201465199
1729,1.5561172161172159
1730,1.5496703296703296
1731,1.5456410256410256
1732,1.5399999999999998
1733,1.5383882783882783
1734,1.5359706959706958
1735,1.5351648351648353
1736,1.5359706959706958
1737,1.5367765567765566
1738,1.5408058608058606
1739,1.5416117216117216
1740,1.5480586080586078
1741,1.5528937728937728
1742,1.5585347985347986
1743,1.5625641025641026
1744,1.569010989010989
1745,1.5738461538461537
1746,1.5786813186813187
1747,1.581904761904762
1748,1.5843223443223442
1749,1.5867399267399267
1750,1.5907692307692307
1751,1.5956043956043957
1752,1.597216117216117
1753,1.6004395604395603
1754,1.6044688644688643
1755,1.6068864468864468
1756,1.6076923076923078
1757,1.6068864468864468
1758,1.6044688644688643
1759,1.6068864468864468
1760,1.6044688644688643
1761,1.6028571428571428
1762,1.601245421245421
1763,1.598021978021978
1764,1.593992673992674
1765,1.58996336996337
1766,1.58996336996337
1767,1.58996336996337
1768,1.58996336996337
1769,1.5907692307692307
1770,1.5947985347985347
1771,1.598021978021978
1772,1.602051282051282
1773,1.6068864468864468
1774,1.6133333333333333
1775,1.6197802197802198
1776,1.627032967032967
1777,1.6318681318681318
1778,1.6367032967032966
1779,1.6415384615384614
1780,1.6447619047619046
1781,1.6439560439560439
1782,1.6399267399267399
1783,1.6342857142857141
1784,1.6286446886446884
1785,1.618168498168498
1786,1.6117216117216118
1787,1.6076923076923078
1788,1.6036630036630037
1789,1.601245421245421
1790,1.602051282051282
1791,1.6028571428571428
1792,1.602051282051282
1793,1.605274725274725
1794,1.606080586080586
1795,1.606080586080586
1796,1.6044688644688643
1797,1.6028571428571428
1798,1.5988278388278387
1799,1.593186813186813
1800,1.5883516483516482
1801,1.585128205128205
1802,1.585128205128205
1803,1.5867399267399267
1804,1.589157509157509
1805,1.5915750915750915
1806,1.5923809523809522
1807,1.5947985347985347
1808,1.61010989010989
1809,1.6004395604395603
1810,1.602051282051282
1811,1.605274725274725
1812,1.6076923076923078
1813,1.6125274725274723
1814,1.6157509157509158
1815,1.623003663003663
1816,1.6278388278388278
1817,1.6334798534798534
1818,1.6367032967032966
1819,1.6423443223443221
1820,1.6447619047619046
1821,1.6455677655677654
1822,1.6447619047619046
1823,1.6415384615384614
1824,1.6358974358974359
1825,1.626227106227106
1826,1.6157509157509158
1827,1.6044688644688643
1828,1.5947985347985347
1829,1.5875457875457875
1830,1.5827106227106227
1831,1.577069597069597
1832,1.5722344322344322
1833,1.5714285714285714
1834,1.5706227106227106
1835,1.569010989010989
1836,1.5673992673992674
1837,1.564175824175824
1838,1.5561172161172159
1839,1.5593406593406594
1840,1.5601465201465199
1841,1.5601465201465199
1842,1.5593406593406594
1843,1.5609523809523809
1844,1.5609523809523809
1845,1.5625641025641026
1846,1.5633699633699634
1847,1.5665934065934066
1848,1.568205128205128
1849,1.5722344322344322
1850,1.5762637362637362
1851,1.5802930402930402
1852,1.5835164835164834
1853,1.5875457875457875
1854,1.5915750915750915
1855,1.5964102564102562
1856,1.6004395604395603
1857,1.605274725274725
1858,1.6076923076923078
1859,1.61010989010989
1860,1.6125274725274723
1861,1.6133333333333333
1862,1.618168498168498
1863,1.614139194139194
1864,1.6133333333333333
1865,1.6109157509157508
1866,1.6109157509157508
1867,1.6093040293040293
1868,1.6068864468864468
1869,1.606080586080586
1870,1.6044688644688643
1871,1.601245421245421
1872,1.6004395604395603
1873,1.5988278388278387
1874,1.5996336996336997
1875,1.6004395604395603
1876,1.597216117216117
1877,1.5988278388278387
1878,1.5988278388278387
1879,1.597216117216117
1880,1.5947985347985347
1881,1.5923809523809522
1882,1.597216117216117
1883,1.5947985347985347
1884,1.593992673992674
1885,1.593992673992674
1886,1.585128205128205
1887,1.5956043956043957
1888,1.5964102564102562
1889,1.597216117216117
1890,1.597216117216117
1891,1.5964102564102562
1892,1.5964102564102562
1893,1.5956043956043957
1894,1.5956043956043957
1895,1.5956043956043957
1896,1.5956043956043957
1897,1.593992673992674
1898,1.5956043956043957
1899,1.5964102564102562
1900,1.597216117216117
1901,1.5996336996336997
1902,1.602051282051282
1903,1.6028571428571428
1904,1.6036630036630037
1905,1.602051282051282
1906,1.6028571428571428
1907,1.602051282051282
1908,1.6028571428571428
1909,1.602051282051282
1910,1.601245421245421
1911,1.602051282051282
1912,1.6036630036630037
1913,1.6004395604395603
1914,1.5996336996336997
1915,1.5996336996336997
1916,1.598021978021978
1917,1.5964102564102562
1918,1.5923809523809522
1919,1.58996336996337
1920,1.5867399267399267
1921,1.5843223443223442
1922,1.5827106227106227
1923,1.5827106227106227
1924,1.5835164835164834
1925,1.5843223443223442
1926,1.585128205128205
1927,1.5867399267399267
1928,1.5875457875457875
1929,1.5883516483516482
1930,1.5907692307692307
1931,1.5915750915750915
1932,1.593186813186813
1933,1.5947985347985347
1934,1.5947985347985347
1935,1.598021978021978
1936,1.598021978021978
1937,1.602051282051282
1938,1.6044688644688643
1939,1.606080586080586
1940,1.6093040293040293
1941,1.6109157509157508
1942,1.6149450549450548
1943,1.614139194139194
1944,1.6133333333333333
1945,1.6133333333333333
1946,1.6093040293040293
1947,1.6109157509157508
1948,1.6093040293040293
1949,1.6036630036630037
1950,1.6076923076923078
1951,1.6044688644688643
1952,1.6028571428571428
1953,1.601245421245421
1954,1.6004395604395603
1955,1.598021978021978
1956,1.598021978021978
1957,1.597216117216117
1958,1.597216117216117
1959,1.5956043956043957
1960,1.5947985347985347
1961,1.5956043956043957
1962,1.5947985347985347
1963,1.5956043956043957
1964,1.597216117216117
1965,1.5988278388278387
1966,1.6028571428571428
1967,1.606080586080586
1968,1.6093040293040293
1969,1.614139194139194
1970,1.618974358974359
1971,1.6254212454212453
1972,1.63025641025641
1973,1.6391208791208791
1974,1.6471794871794871
1975,1.6544322344322344
1976,1.6584615384615384
1977,1.6608791208791207
1978,1.6649084249084247
1979,1.6649084249084247
1980,1.6632967032967032
1981,1.6616849816849815
1982,1.6584615384615384
1983,1.6536263736263734
1984,1.647985347985348
1985,1.6431501831501831
1986,1.6367032967032966
1987,1.6318681318681318
1988,1.627032967032967
1989,1.6205860805860803
1990,1.6165567765567763
1991,1.6109157509157508
1992,1.606080586080586
1993,1.602051282051282
1994,1.598021978021978
1995,1.5947985347985347
1996,1.5923809523809522
1997,1.58996336996337
1998,1.5883516483516482
1999,1.5883516483516482
2000,1.5875457875457875
2001,1.5883516483516482
2002,1.5875457875457875
2003,1.5867399267399267
2004,1.5875457875457875
2005,1.5883516483516482
2006,1.5883516483516482
2007,1.5915750915750915
2008,1.593992673992674
2009,1.5947985347985347
2010,1.5947985347985347
2011,1.5988278388278387
2012,1.6036630036630037
2013,1.605274725274725
2014,1.6093040293040293
2015,1.6109157509157508
2016,1.6157509157509158
2017,1.6197802197802198
2018,1.623003663003663
2019,1.627032967032967
2020,1.63025641025641
2021,1.6334798534798534
2022,1.6383150183150181
2023,1.6399267399267399
2024,1.6423443223443221
2025,1.6415384615384614
2026,1.6415384615384614
2027,1.6407326007326006
2028,1.6375091575091574
2029,1.635091575091575
2030,1.6318681318681318
2031,1.6286446886446884
2032,1.6254212454212453
2033,1.623003663003663
2034,1.6205860805860803
2035,1.622197802197802
2036,1.6238095238095238
2037,1.626227106227106
2038,1.6294505494505493
2039,1.6318681318681318
2040,1.635091575091575
2041,1.6383150183150181
2042,1.6415384615384614
2043,1.6439560439560439
2044,1.6358974358974359
2045,1.6455677655677654
2046,1.6447619047619046
2047,1.6423443223443221
2048,1.6399267399267399
2049,1.6367032967032966
2050,1.6318681318681318
2051,1.627032967032967
2052,1.623003663003663
2053,1.6173626373626373
2054,1.614139194139194
2055,1.6117216117216118
2056,1.6068864468864468
2057,1.6044688644688643
2058,1.602051282051282
2059,1.602051282051282
2060,1.601245421245421
2061,1.602051282051282
2062,1.6044688644688643
2063,1.6076923076923078
2064,1.6093040293040293
2065,1.6133333333333333
2066,1.618168498168498
2067,1.6205860805860803
2068,1.6238095238095238
2069,1.6238095238095238
2070,1.627032967032967
2071,1.6278388278388278
2072,1.618974358974359
2073,1.6278388278388278
2074,1.6294505494505493
2075,1.6278388278388278
2076,1.6294505494505493
2077,1.63025641025641
2078,1.6318681318681318
2079,1.6334798534798534
2080,1.6375091575091574
2081,1.6383150183150181
2082,1.6423443223443221
2083,1.6439560439560439
2084,1.6326739926739926
2085,1.6512087912087912
2086,1.656043956043956
2087,1.6592673992673992
2088,1.6624908424908424
2089,1.6649084249084247
2090,1.6665201465201465
2091,1.6681318681318682
2092,1.6697435897435897
2093,1.6705494505494505
2094,1.6697435897435897
2095,1.6697435897435897
2096,1.6697435897435897
2097,1.6681318681318682
2098,1.6673260073260072
2099,1.6657142857142855
2100,1.6600732600732602
2101,1.6624908424908424
2102,1.6463736263736264
2103,1.6616849816849815
2104,1.6608791208791207
2105,1.6592673992673992
2106,1.6592673992673992
2107,1.6568498168498167
2108,1.6568498168498167
2109,1.6544322344322344
2110,1.6536263736263734
2111,1.652014652014652
2112,1.6512087912087912
2113,1.6504029304029304
2114,1.6512087912087912
2115,1.652014652014652
2116,1.6528205128205127
2117,1.6536263736263734
2118,1.656043956043956
2119,1.656043956043956
2120,1.6568498168498167
2121,1.6576556776556775
2122,1.6584615384615384
2123,1.6600732600732602
2124,1.6616849816849815
2125,1.6632967032967032
2126,1.6657142857142855
2127,1.6697435897435897
2128,1.6729670329670328
2129,1.6769963369963368
2130,1.6818315018315018
2131,1.6850549450549448
2132,1.6906959706959706
2133,1.6939194139194138
2134,1.6963369963369963
2135,1.6987545787545786
2136,1.6979487179487178
2137,1.6979487179487178
2138,1.6955311355311355
2139,1.6931135531135528
2140,1.6882783882783883
2141,1.6802197802197802
2142,1.6810256410256408
2143,1.6769963369963368
2144,1.6721611721611722
2145,1.6657142857142855
2146,1.6584615384615384
2147,1.6528205128205127
2148,1.6455677655677654
2149,1.6383150183150181
2150,1.6318681318681318
2151,1.626227106227106
2152,1.6213919413919413
2153,1.618974358974359
2154,1.602051282051282
2155,1.6149450549450548
2156,1.6109157509157508
2157,1.614139194139194
2158,1.614139194139194
2159,1.6157509157509158
2160,1.6165567765567763
2161,1.618974358974359
2162,1.6213919413919413
2163,1.623003663003663
2164,1.622197802197802
2165,1.6294505494505493
2166,1.6367032967032966
2167,1.6383150183150181
2168,1.6431501831501831
2169,1.6471794871794871
2170,1.6528205128205127
2171,1.6584615384615384
2172,1.6632967032967032
2173,1.6632967032967032
2174,1.6681318681318682
2175,1.6705494505494505
2176,1.6729670329670328
2177,1.6761904761904762
2178,1.6753846153846153
2179,1.6769963369963368
2180,1.6778021978021977
2181,1.6769963369963368
2182,1.6761904761904762
2183,1.6737728937728937
2184,1.6729670329670328
2185,1.6697435897435897
2186,1.6665201465201465
2187,1.6641025641025642
2188,1.6608791208791207
2189,1.6584615384615384
2190,1.6544322344322344
2191,1.6544322344322344
2192,1.6536263736263734
2193,1.652014652014652
2194,1.6512087912087912
2195,1.6495970695970694
2196,1.6487912087912087
2197,1.6487912087912087
2198,1.6504029304029304
2199,1.647985347985348
2200,1.6512087912087912
2201,1.652014652014652
2202,1.6552380952380952
2203,1.6576556776556775
2204,1.6600732600732602
2205,1.6649084249084247
2206,1.6665201465201465
2207,1.6689377289377287
2208,1.6705494505494505
2209,1.6721611721611722
2210,1.6729670329670328
2211,1.6737728937728937
2212,1.6761904761904762
2213,1.6745787545787545
2214,1.6737728937728937
2215,1.6737728937728937
2216,1.6721611721611722
2217,1.6705494505494505
2218,1.6713553113553112
2219,1.6713553113553112
2220,1.6721611721611722
2221,1.6705494505494505
2222,1.6713553113553112
2223,1.6713553113553112
2224,1.6721611721611722
2225,1.6713553113553112
2226,1.6697435897435897
2227,1.6689377289377287
2228,1.6713553113553112
2229,1.6673260073260072
2230,1.6673260073260072
2231,1.6673260073260072
2232,1.6673260073260072
2233,1.6673260073260072
2234,1.6681318681318682
2235,1.6689377289377287
2236,1.6713553113553112
2237,1.6745787545787545
2238,1.6769963369963368
2239,1.6794139194139193
2240,1.6810256410256408
2241,1.6826373626373625
2242,1.6697435897435897
2243,1.6802197802197802
2244,1.6769963369963368
2245,1.6713553113553112
2246,1.6665201465201465
2247,1.6608791208791207
2248,1.6576556776556775
2249,1.6576556776556775
2250,1.6584615384615384
2251,1.6592673992673992
2252,1.6616849816849815
2253,1.6649084249084247
2254,1.6697435897435897
2255,1.6721611721611722
2256,1.6769963369963368
2257,1.6810256410256408
2258,1.6858608058608058
2259,1.6898901098901098
2260,1.6939194139194138
2261,1.6963369963369963
2262,1.6979487179487178
2263,1.6979487179487178
2264,1.6979487179487178
2265,1.6939194139194138
2266,1.6890842490842488
2267,1.6826373626373625
2268,1.6729670329670328
2269,1.6624908424908424
2270,1.6512087912087912
2271,1.6391208791208791
2272,1.63025641025641
2273,1.6205860805860803
2274,1.614139194139194
2275,1.6084981684981683
2276,1.605274725274725
2277,1.602051282051282
2278,1.602051282051282
2279,1.6028571428571428
2280,1.605274725274725
2281,1.6084981684981683
2282,1.6133333333333333
2283,1.618168498168498
2284,1.6254212454212453
2285,1.6326739926739926
2286,1.6399267399267399
2287,1.6487912087912087
2288,1.656043956043956
2289,1.6649084249084247
2290,1.6729670329670328
2291,1.6802197802197802
2292,1.6874725274725275
2293,1.6931135531135528
2294,1.7003663003663003
2295,1.7019780219780218
2296,1.7043956043956043
2297,1.7060073260073259
2298,1.7068131868131868
2299,1.7084249084249084
2300,1.7076190476190476
2301,1.709230769230769
2302,1.7084249084249084
2303,1.705201465201465
2304,1.7035897435897436
2305,1.6987545787545786
2306,1.697142857142857
2307,1.6963369963369963
2308,1.6955311355311355
2309,1.6947252747252746
2310,1.6987545787545786
2311,1.7019780219780218
2312,1.705201465201465
2313,1.7108424908424908
2314,1.7156776556776556
2315,1.7213186813186812
2316,1.7245421245421246
2317,1.7277655677655677
2318,1.73018315018315
2319,1.7293772893772892
2320,1.7285714285714286
2321,1.7253479853479852
2322,1.7197069597069596
2323,1.7140659340659339
2324,1.7019780219780218
2325,1.7043956043956043
2326,1.6979487179487178
2327,1.6947252747252746
2328,1.6915018315018315
2329,1.6874725274725275
2330,1.6858608058608058
2331,1.6834432234432235
2332,1.6778021978021977
2333,1.6745787545787545
2334,1.6713553113553112
2335,1.6681318681318682
2336,1.6665201465201465
2337,1.6657142857142855
2338,1.6665201465201465
2339,1.6665201465201465
2340,1.6681318681318682
2341,1.6681318681318682
2342,1.6681318681318682
2343,1.6665201465201465
2344,1.6665201465201465
2345,1.6632967032967032
2346,1.6608791208791207
2347,1.6616849816849815
2348,1.6608791208791207
2349,1.6616849816849815
2350,1.6632967032967032
2351,1.6657142857142855
2352,1.6673260073260072
2353,1.6697435897435897
2354,1.6713553113553112
2355,1.6729670329670328
2356,1.6737728937728937
2357,1.6745787545787545
2358,1.6761904761904762
2359,1.6769963369963368
2360,1.6810256410256408
2361,1.6826373626373625
2362,1.6834432234432235
2363,1.6858608058608058
2364,1.6890842490842488
2365,1.6906959706959706
2366,1.6898901098901098
2367,1.6923076923076923
2368,1.6915018315018315
2369,1.6915018315018315
2370,1.6923076923076923
2371,1.6915018315018315
2372,1.6955311355311355
2373,1.6955311355311355
2374,1.6939194139194138
2375,1.7019780219780218
2376,1.7068131868131868
2377,1.7132600732600731
2378,1.7213186813186812
2379,1.7293772893772892
2380,1.739047619047619
2381,1.747106227106227
2382,1.755164835164835
2383,1.764029304029304
2384,1.7696703296703296
2385,1.7745054945054943
2386,1.7753113553113553
2387,1.772087912087912
2388,1.768058608058608
2389,1.7583882783882783
2390,1.7535531135531133
2391,1.7454945054945052
2392,1.7358241758241757
2393,1.7245421245421246
2394,1.7124542124542124
2395,1.6995604395604396
2396,1.6874725274725275
2397,1.6761904761904762
2398,1.6649084249084247
2399,1.6528205128205127
2400,1.6423443223443221
2401,1.6318681318681318
2402,1.6238095238095238
2403,1.6157509157509158
2404,1.6084981684981683
2405,1.6028571428571428
2406,1.597216117216117
2407,1.5947985347985347
2408,1.5875457875457875
2409,1.5907692307692307
2410,1.5907692307692307
2411,1.5915750915750915
2412,1.5956043956043957
2413,1.5996336996336997
2414,1.606080586080586
2415,1.6109157509157508
2416,1.6149450549450548
2417,1.6246153846153844
2418,1.631062271062271
2419,1.6383150183150181
2420,1.6463736263736264
2421,1.6544322344322344
2422,1.6624908424908424
2423,1.6705494505494505
2424,1.6778021978021977
2425,1.6850549450549448
2426,1.6915018315018315
2427,1.697142857142857
2428,1.7003663003663003
2429,1.7019780219780218
2430,1.7043956043956043
2431,1.7043956043956043
2432,1.705201465201465
2433,1.705201465201465
2434,1.7027838827838826
2435,1.701172161172161
2436,1.6987545787545786
2437,1.6963369963369963
2438,1.6947252747252746
2439,1.6923076923076923
2440,1.6882783882783883
2441,1.6874725274725275
2442,1.6842490842490843
2443,1.6802197802197802
2444,1.6761904761904762
2445,1.6721611721611722
2446,1.6681318681318682
2447,1.6632967032967032
2448,1.6600732600732602
2449,1.6568498168498167
2450,1.6536263736263734
2451,1.6512087912087912
2452,1.647985347985348
2453,1.6455677655677654
2454,1.6415384615384614
2455,1.6407326007326006
2456,1.6391208791208791
2457,1.6399267399267399
2458,1.6423443223443221
2459,1.6439560439560439
2460,1.6471794871794871
2461,1.6512087912087912
2462,1.656043956043956
2463,1.6584615384615384
2464,1.6632967032967032
2465,1.6657142857142855
2466,1.6697435897435897
2467,1.6721611721611722
2468,1.6713553113553112
2469,1.6769963369963368
2470,1.6778021978021977
2471,1.6786080586080585
2472,1.6802197802197802
2473,1.6794139194139193
2474,1.6810256410256408
2475,1.6834432234432235
2476,1.6826373626373625
2477,1.6834432234432235
2478,1.6834432234432235
2479,1.6850549450549448
2480,1.6874725274725275
2481,1.6906959706959706
2482,1.6955311355311355
2483,1.6995604395604396
2484,1.7076190476190476
2485,1.7156776556776556
2486,1.7237362637362637
2487,1.73018315018315
2488,1.7342124542124542
2489,1.7342124542124542
2490,1.7334065934065932
2491,1.730989010989011
2492,1.7253479853479852
2493,1.7237362637362637
2494,1.7189010989010989
2495,1.7156776556776556
2496,1.7116483516483516
2497,1.7076190476190476
2498,1.7043956043956043
2499,1.6987545787545786
2500,1.6939194139194138
2501,1.6882783882783883
2502,1.6665201465201465
2503,1.6802197802197802
2504,1.6769963369963368
2505,1.6737728937728937
2506,1.6713553113553112
2507,1.6689377289377287
2508,1.6665201465201465
2509,1.6657142857142855
2510,1.6649084249084247
2511,1.6608791208791207
2512,1.6568498168498167
2513,1.6576556776556775
2514,1.6447619047619046
2515,1.6528205128205127
2516,1.6504029304029304
2517,1.647985347985348
2518,1.6423443223443221
2519,1.6463736263736264
2520,1.647985347985348
2521,1.647985347985348
2522,1.6512087912087912
2523,1.656043956043956
2524,1.656043956043956
2525,1.6608791208791207
2526,1.6657142857142855
2527,1.6713553113553112
2528,1.6761904761904762
2529,1.6810256410256408
2530,1.6866666666666665
2531,1.6923076923076923
2532,1.6963369963369963
2533,1.7003663003663003
2534,1.7019780219780218
2535,1.7027838827838826
2536,1.7035897435897436
2537,1.7027838827838826
2538,1.7019780219780218
2539,1.6995604395604396
2540,1.6995604395604396
2541,1.6995604395604396
2542,1.697142857142857
2543,1.6987545787545786
2544,1.6979487179487178
2545,1.6955311355311355
2546,1.6931135531135528
2547,1.6906959706959706
2548,1.6890842490842488
2549,1.6874725274725275
2550,1.6842490842490843
2551,1.6810256410256408
2552,1.6761904761904762
2553,1.6745787545787545
2554,1.6729670329670328
2555,1.6713553113553112
2556,1.6697435897435897
2557,1.6697435897435897
2558,1.6705494505494505
2559,1.6713553113553112
2560,1.6729670329670328
2561,1.6745787545787545
2562,1.6769963369963368
2563,1.6786080586080585
2564,1.6850549450549448
2565,1.6834432234432235
2566,1.6842490842490843
2567,1.6866666666666665
2568,1.6890842490842488
2569,1.6923076923076923
2570,1.6947252747252746
2571,1.6947252747252746
2572,1.6987545787545786
2573,1.7019780219780218
2574,1.7035897435897436
2575,1.7076190476190476
2576,1.7084249084249084
2577,1.7100366300366299
2578,1.6963369963369963
2579,1.7116483516483516
2580,1.7116483516483516
2581,1.7084249084249084
2582,1.709230769230769
2583,1.7068131868131868
2584,1.7068131868131868
2585,1.7043956043956043
2586,1.7060073260073259
2587,1.705201465201465
2588,1.7035897435897436
2589,1.7027838827838826
2590,1.7003663003663003
2591,1.6987545787545786
2592,1.6939194139194138
2593,1.6923076923076923
2594,1.6890842490842488
2595,1.6850549450549448
2596,1.6842490842490843
2597,1.6818315018315018
2598,1.6794139194139193
2599,1.6802197802197802
2600,1.6794139194139193
2601,1.6794139194139193
2602,1.6794139194139193
2603,1.6794139194139193
2604,1.6745787545787545
2605,1.6761904761904762
2606,1.6826373626373625
2607,1.6850549450549448
2608,1.6874725274725275
2609,1.6890842490842488
2610,1.6906959706959706
2611,1.6939194139194138
2612,1.697142857142857
2613,1.6995604395604396
2614,1.7027838827838826
2615,1.7043956043956043
2616,1.7068131868131868
2617,1.7100366300366299
2618,1.7148717948717949
2619,1.7205128205128206
2620,1.726959706959707
2621,1.7342124542124542
2622,1.7422710622710622
2623,1.747912087912088
2624,1.7567765567765568
2625,1.7575824175824175
2626,1.759194139194139
2627,1.7624175824175823
2628,1.755970695970696
2629,1.751135531135531
2630,1.7446886446886447
2631,1.7366300366300367
2632,1.7277655677655677
2633,1.718095238095238
2634,1.7084249084249084
2635,1.6995604395604396
2636,1.6915018315018315
2637,1.6858608058608058
2638,1.6794139194139193
2639,1.6761904761904762
2640,1.6737728937728937
2641,1.6721611721611722
2642,1.6737728937728937
2643,1.6769963369963368
2644,1.6826373626373625
2645,1.6882783882783883
2646,1.697142857142857
2647,1.7019780219780218
2648,1.705201465201465
2649,1.7043956043956043
2650,1.7019780219780218
2651,1.7003663003663003
2652,1.6963369963369963
2653,1.6931135531135528
2654,1.6890842490842488
2655,1.6858608058608058
2656,1.6834432234432235
2657,1.6810256410256408
2658,1.6753846153846153
2659,1.6786080586080585
2660,1.6778021978021977
2661,1.6794139194139193
2662,1.6810256410256408
2663,1.6842490842490843
2664,1.6866666666666665
2665,1.6906959706959706
2666,1.6947252747252746
2667,1.6987545787545786
2668,1.7027838827838826
2669,1.7068131868131868
2670,1.7084249084249084
2671,1.7100366300366299
2672,1.7116483516483516
2673,1.7108424908424908
2674,1.7100366300366299
2675,1.709230769230769
2676,1.709230769230769
2677,1.7084249084249084
2678,1.7084249084249084
2679,1.7068131868131868
2680,1.705201465201465
2681,1.7043956043956043
2682,1.7019780219780218
2683,1.6979487179487178
2684,1.6931135531135528
2685,1.6923076923076923
2686,1.6882783882783883
2687,1.6882783882783883
2688,1.6890842490842488
2689,1.6890842490842488
2690,1.6906959706959706
2691,1.6931135531135528
2692,1.6947252747252746
2693,1.6979487179487178
2694,1.6987545787545786
2695,1.6995604395604396
2696,1.705201465201465
2697,1.6995604395604396
2698,1.6987545787545786
2699,1.6987545787545786
2700,1.6963369963369963
2701,1.6963369963369963
2702,1.6939194139194138
2703,1.6939194139194138
2704,1.6906959706959706
2705,1.6890842490842488
2706,1.6858608058608058
2707,1.6842490842490843
2708,1.6826373626373625
2709,1.6802197802197802
2710,1.6778021978021977
2711,1.6769963369963368
2712,1.6761904761904762
2713,1.6729670329670328
2714,1.6745787545787545
2715,1.6761904761904762
2716,1.6794139194139193
2717,1.6826373626373625
2718,1.6874725274725275
2719,1.6906959706959706
2720,1.6963369963369963
2721,1.7003663003663003
2722,1.705201465201465
2723,1.7084249084249084
2724,1.7124542124542124
2725,1.7164835164835164
2726,1.7213186813186812
2727,1.722930402930403
2728,1.726153846153846
2729,1.726959706959707
2730,1.7277655677655677
2731,1.7285714285714286
2732,1.7285714285714286
2733,1.7285714285714286
2734,1.726959706959707
2735,1.7253479853479852
2736,1.722124542124542
2737,1.7213186813186812
2738,1.7197069597069596
2739,1.718095238095238
2740,1.7164835164835164
2741,1.7156776556776556
2742,1.7132600732600731
2743,1.7108424908424908
2744,1.7076190476190476
2745,1.7060073260073259
2746,1.705201465201465
2747,1.7035897435897436
2748,1.6882783882783883
2749,1.7035897435897436
2750,1.7068131868131868
2751,1.7068131868131868
2752,1.7084249084249084
2753,1.709230769230769
2754,1.7100366300366299
2755,1.7116483516483516
2756,1.7140659340659339
2757,1.7164835164835164
2758,1.7205128205128206
2759,1.7245421245421246
2760,1.7277655677655677
2761,1.730989010989011
2762,1.7334065934065932
2763,1.7358241758241757
2764,1.7358241758241757
2765,1.7366300366300367
2766,1.7358241758241757
2767,1.7342124542124542
2768,1.7342124542124542
2769,1.7326007326007327
2770,1.7334065934065932
2771,1.7317948717948717
2772,1.730989010989011
2773,1.73018315018315
2774,1.726153846153846
2775,1.726959706959707
2776,1.722930402930403
2777,1.718095238095238
2778,1.7132600732600731
2779,1.7100366300366299
2780,1.7068131868131868
2781,1.7043956043956043
2782,1.7019780219780218
2783,1.7019780219780218
2784,1.7019780219780218
2785,1.701172161172161
2786,1.7003663003663003
2787,1.7027838827838826
2788,1.7027838827838826
2789,1.7043956043956043
2790,1.705201465201465
2791,1.7060073260073259
2792,1.7076190476190476
2793,1.709230769230769
2794,1.7108424908424908
2795,1.7116483516483516
2796,1.7148717948717949
2797,1.7148717948717949
2798,1.7156776556776556
2799,1.7164835164835164
2800,1.7172893772893771
2801,1.7108424908424908
2802,1.7156776556776556
2803,1.718095238095238
2804,1.7197069597069596
2805,1.7213186813186812
2806,1.7237362637362637
2807,1.726153846153846
2808,1.7253479853479852
2809,1.7317948717948717
2810,1.735018315018315
2811,1.735018315018315
2812,1.7398534798534797
2813,1.730989010989011
2814,1.7326007326007327
2815,1.726959706959707
2816,1.7245421245421246
2817,1.7213186813186812
2818,1.7197069597069596
2819,1.7164835164835164
2820,1.7124542124542124
2821,1.7108424908424908
2822,1.7076190476190476
2823,1.7060073260073259
2824,1.7043956043956043
2825,1.705201465201465
2826,1.705201465201465
2827,1.7060073260073259
2828,1.7076190476190476
2829,1.7108424908424908
2830,1.7148717948717949
2831,1.7172893772893771
2832,1.7213186813186812
2833,1.7245421245421246
2834,1.7293772893772892
2835,1.730989010989011
2836,1.73018315018315
2837,1.7342124542124542
2838,1.7358241758241757
2839,1.735018315018315
2840,1.735018315018315
2841,1.7326007326007327
2842,1.73018315018315
2843,1.726153846153846
2844,1.722930402930403
2845,1.7197069597069596
2846,1.7156776556776556
2847,1.7124542124542124
2848,1.7100366300366299
2849,1.7060073260073259
2850,1.7027838827838826
2851,1.6979487179487178
2852,1.6947252747252746
2853,1.6906959706959706
2854,1.6882783882783883
2855,1.6842490842490843
2856,1.6818315018315018
2857,1.6802197802197802
2858,1.6802197802197802
2859,1.6802197802197802
2860,1.6818315018315018
2861,1.6842490842490843
2862,1.6858608058608058
2863,1.6898901098901098
2864,1.6923076923076923
2865,1.6939194139194138
2866,1.6955311355311355
2867,1.697142857142857
2868,1.697142857142857
2869,1.697142857142857
2870,1.6979487179487178
2871,1.6979487179487178
2872,1.6987545787545786
2873,1.6979487179487178
2874,1.7019780219780218
2875,1.7035897435897436
2876,1.7060073260073259
2877,1.7084249084249084
2878,1.7100366300366299
2879,1.7132600732600731
2880,1.7164835164835164
2881,1.7189010989010989
2882,1.7213186813186812
2883,1.722930402930403
2884,1.7245421245421246
2885,1.726153846153846
2886,1.7253479853479852
2887,1.7253479853479852
2888,1.7100366300366299
2889,1.7205128205128206
2890,1.7172893772893771
2891,1.7172893772893771
2892,1.7164835164835164
2893,1.7156776556776556
2894,1.7172893772893771
2895,1.7148717948717949
2896,1.7148717948717949
2897,1.7189010989010989
2898,1.7132600732600731
2899,1.7100366300366299
2900,1.7132600732600731
2901,1.7116483516483516
2902,1.7116483516483516
2903,1.7100366300366299
2904,1.7100366300366299
2905,1.7084249084249084
2906,1.7084249084249084
2907,1.7084249084249084
2908,1.7100366300366299
2909,1.7100366300366299
2910,1.7124542124542124
2911,1.7132600732600731
2912,1.7148717948717949
2913,1.7148717948717949
2914,1.7148717948717949
2915,1.7156776556776556
2916,1.7148717948717949
2917,1.7156776556776556
2918,1.7164835164835164
2919,1.7172893772893771
2920,1.7172893772893771
2921,1.7172893772893771
2922,1.7019780219780218
2923,1.7172893772893771
2924,1.7197069597069596
2925,1.7213186813186812
2926,1.722124542124542
2927,1.7237362637362637
2928,1.722930402930403
2929,1.722930402930403
2930,1.7213186813186812
2931,1.7189010989010989
2932,1.7164835164835164
2933,1.7140659340659339
2934,1.7116483516483516
2935,1.709230769230769
2936,1.7084249084249084
2937,1.7068131868131868
2938,1.7068131868131868
2939,1.7068131868131868
2940,1.7076190476190476
2941,1.7068131868131868
2942,1.7068131868131868
2943,1.7084249084249084
2944,1.7076190476190476
2945,1.7084249084249084
2946,1.709230769230769
2947,1.7108424908424908
2948,1.7108424908424908
2949,1.7100366300366299
2950,1.709230769230769
2951,1.7084249084249084
2952,1.7076190476190476
2953,1.7068131868131868
2954,1.7076190476190476
2955,1.7116483516483516
2956,1.7156776556776556
2957,1.7213186813186812
2958,1.726153846153846
2959,1.7317948717948717
2960,1.7374358974358972
2961,1.7406593406593407
2962,1.7446886446886447
2963,1.7446886446886447
2964,1.7454945054945052
2965,1.7446886446886447
2966,1.7463003663003662
2967,1.7446886446886447
2968,1.743882783882784
2969,1.7414652014652012
2970,1.739047619047619
2971,1.7358241758241757
2972,1.7317948717948717
2973,1.7285714285714286
2974,1.7285714285714286
2975,1.7245421245421246
2976,1.7245421245421246
2977,1.7213186813186812
2978,1.718095238095238
2979,1.7140659340659339
2980,1.7100366300366299
2981,1.7068131868131868
2982,1.7027838827838826
2983,1.697142857142857
2984,1.6923076923076923
2985,1.6850549450549448
2986,1.6794139194139193
2987,1.6729670329670328
2988,1.6689377289377287
2989,1.6665201465201465
2990,1.6649084249084247
2991,1.6665201465201465
2992,1.6673260073260072
2993,1.6681318681318682
2994,1.6697435897435897
2995,1.6713553113553112
2996,1.6721611721611722
2997,1.6737728937728937
2998,1.6761904761904762
2999,1.6753846153846153
3000,1.6769963369963368
3001,1.6786080586080585
3002,1.6786080586080585
3003,1.6786080586080585
3004,1.6802197802197802
3005,1.6834432234432235
3006,1.6850549450549448
3007,1.6882783882783883
3008,1.6906959706959706
3009,1.6939194139194138
3010,1.697142857142857
3011,1.7019780219780218
3012,1.705201465201465
3013,1.7100366300366299
3014,1.7140659340659339
3015,1.7164835164835164
3016,1.726153846153846
3017,1.7285714285714286
3018,1.7342124542124542
3019,1.739047619047619
3020,1.7454945054945052
3021,1.7495238095238093
3022,1.751941391941392
3023,1.7535531135531133
3024,1.7535531135531133
3025,1.7503296703296702
3026,1.747106227106227
3027,1.743076923076923
3028,1.739047619047619
3029,1.7326007326007327
3030,1.726959706959707
3031,1.7197069597069596
3032,1.7116483516483516
3033,1.7043956043956043
3034,1.7003663003663003
3035,1.6955311355311355
3036,1.6898901098901098
3037,1.6858608058608058
3038,1.6818315018315018
3039,1.6769963369963368
3040,1.6729670329670328
3041,1.6689377289377287
3042,1.6665201465201465
3043,1.6624908424908424
3044,1.6608791208791207
3045,1.6592673992673992
3046,1.6568498168498167
3047,1.6584615384615384
3048,1.6600732600732602
3049,1.6600732600732602
3050,1.6608791208791207
3051,1.6657142857142855
3052,1.6697435897435897
3053,1.6729670329670328
3054,1.6778021978021977
3055,1.6858608058608058
3056,1.6906959706959706
3057,1.6987545787545786
3058,1.7060073260073259
3059,1.7116483516483516
3060,1.7172893772893771
3061,1.7213186813186812
3062,1.7148717948717949
3063,1.726959706959707
3064,1.7277655677655677
3065,1.7293772893772892
3066,1.7285714285714286
3067,1.7277655677655677
3068,1.726959706959707
3069,1.7245421245421246
3070,1.7245421245421246
3071,1.7213186813186812
3072,1.7205128205128206
3073,1.722124542124542
3074,1.718095238095238
3075,1.7172893772893771
3076,1.7164835164835164
3077,1.7148717948717949
3078,1.7156776556776556
3079,1.7108424908424908
3080,1.7100366300366299
3081,1.7084249084249084
3082,1.7068131868131868
3083,1.705201465201465
3084,1.7027838827838826
3085,1.7019780219780218
3086,1.6995604395604396
3087,1.697142857142857
3088,1.6826373626373625
3089,1.6923076923076923
3090,1.6906959706959706
3091,1.6890842490842488
3092,1.6874725274725275
3093,1.6826373626373625
3094,1.6826373626373625
3095,1.6826373626373625
3096,1.6818315018315018
3097,1.6826373626373625
3098,1.6826373626373625
3099,1.6818315018315018
3100,1.6810256410256408
3101,1.6858608058608058
3102,1.6866666666666665
3103,1.6882783882783883
3104,1.6874725274725275
3105,1.6882783882783883
3106,1.6890842490842488
3107,1.6923076923076923
3108,1.6947252747252746
3109,1.697142857142857
3110,1.7003663003663003
3111,1.7027838827838826
3112,1.7043956043956043
3113,1.7076190476190476
3114,1.709230769230769
3115,1.7100366300366299
3116,1.7116483516483516
3117,1.7140659340659339
3118,1.7140659340659339
3119,1.7148717948717949
3120,1.7164835164835164
3121,1.7156776556776556
3122,1.7164835164835164
3123,1.7156776556776556
3124,1.7148717948717949
3125,1.7132600732600731
3126,1.7124542124542124
3127,1.7116483516483516
3128,1.7116483516483516
3129,1.7108424908424908
3130,1.7100366300366299
3131,1.7100366300366299
3132,1.7100366300366299
3133,1.709230769230769
3134,1.709230769230769
3135,1.7084249084249084
3136,1.7084249084249084
3137,1.7068131868131868
3138,1.7035897435897436
3139,1.7060073260073259
3140,1.7035897435897436
3141,1.701172161172161
3142,1.6995604395604396
3143,1.697142857142857
3144,1.6963369963369963
3145,1.6955311355311355
3146,1.6810256410256408
3147,1.6979487179487178
3148,1.7003663003663003
3149,1.6995604395604396
3150,1.7003663003663003
3151,1.701172161172161
3152,1.7019780219780218
3153,1.7019780219780218
3154,1.7019780219780218
3155,1.7019780219780218
3156,1.7019780219780218
3157,1.6987545787545786
3158,1.6979487179487178
3159,1.6947252747252746
3160,1.6915018315018315
3161,1.6906959706959706
3162,1.6858608058608058
3163,1.6858608058608058
3164,1.6826373626373625
3165,1.6818315018315018
3166,1.6810256410256408
3167,1.6818315018315018
3168,1.6842490842490843
3169,1.6866666666666665
3170,1.6906959706959706
3171,1.6963369963369963
3172,1.7027838827838826
3173,1.7084249084249084
3174,1.7148717948717949
3175,1.7205128205128206
3176,1.726959706959707
3177,1.7317948717948717
3178,1.7374358974358972
3179,1.743076923076923
3180,1.7495238095238093
3181,1.7535531135531133
3182,1.7535531135531133
3183,1.751135531135531
3184,1.7454945054945052
3185,1.739047619047619
3186,1.73018315018315
3187,1.722930402930403
3188,1.7148717948717949
3189,1.7068131868131868
3190,1.7019780219780218
3191,1.6906959706959706
3192,1.6826373626373625
3193,1.6786080586080585
3194,1.6689377289377287
3195,1.6624908424908424
3196,1.6568498168498167
3197,1.6552380952380952
3198,1.6528205128205127
3199,1.652014652014652
3200,1.6512087912087912
3201,1.652014652014652
3202,1.6544322344322344
3203,1.6552380952380952
3204,1.6544322344322344
3205,1.6608791208791207
3206,1.6641025641025642
3207,1.6697435897435897
3208,1.6769963369963368
3209,1.6818315018315018
3210,1.6882783882783883
3211,1.6955311355311355
3212,1.7003663003663003
3213,1.705201465201465
3214,1.7100366300366299
3215,1.7140659340659339
3216,1.7156776556776556
3217,1.7197069597069596
3218,1.7213186813186812
3219,1.722124542124542
3220,1.722930402930403
3221,1.7197069597069596
3222,1.7172893772893771
3223,1.718095238095238
3224,1.7213186813186812
3225,1.7140659340659339
3226,1.7116483516483516
3227,1.7084249084249084
3228,1.705201465201465
3229,1.7019780219780218
3230,1.6963369963369963
3231,1.6923076923076923
3232,1.6890842490842488
3233,1.6842490842490843
3234,1.6802197802197802
3235,1.6761904761904762
3236,1.6616849816849815
3237,1.6689377289377287
3238,1.6665201465201465
3239,1.6641025641025642
3240,1.6632967032967032
3241,1.6616849816849815
3242,1.6600732600732602
3243,1.6584615384615384
3244,1.6584615384615384
3245,1.6600732600732602
3246,1.6681318681318682
3247,1.6624908424908424
3248,1.6649084249084247
3249,1.6657142857142855
3250,1.6689377289377287
3251,1.6705494505494505
3252,1.6729670329670328
3253,1.6745787545787545
3254,1.6769963369963368
3255,1.6794139194139193
3256,1.6810256410256408
3257,1.6842490842490843
3258,1.6866666666666665
3259,1.6898901098901098
3260,1.6939194139194138
3261,1.6979487179487178
3262,1.7027838827838826
3263,1.7060073260073259
3264,1.7100366300366299
3265,1.7124542124542124
3266,1.7156776556776556
3267,1.7164835164835164
3268,1.7172893772893771
3269,1.7197069597069596
3270,1.7060073260073259
3271,1.7213186813186812
3272,1.7213186813186812
3273,1.722124542124542
3274,1.7197069597069596
3275,1.718095238095238
3276,1.7148717948717949
3277,1.7124542124542124
3278,1.7100366300366299
3279,1.7068131868131868
3280,1.7027838827838826
3281,1.6995604395604396
3282,1.697142857142857
3283,1.6931135531135528
3284,1.6923076923076923
3285,1.6882783882783883
3286,1.6858608058608058
3287,1.6858608058608058
3288,1.6842490842490843
3289,1.6826373626373625
3290,1.6826373626373625
3291,1.6834432234432235
3292,1.6826373626373625
3293,1.6826373626373625
3294,1.6818315018315018
3295,1.6826373626373625
3296,1.6834432234432235
3297,1.6842490842490843
3298,1.6826373626373625
3299,1.6874725274725275
3300,1.6906959706959706
3301,1.6915018315018315
3302,1.6931135531135528
3303,1.6955311355311355
3304,1.697142857142857
3305,1.697142857142857
3306,1.6995604395604396
3307,1.7019780219780218
3308,1.7035897435897436
3309,1.7035897435897436
3310,1.7035897435897436
3311,1.7027838827838826
3312,1.7035897435897436
3313,1.7027838827838826
3314,1.7019780219780218
3315,1.7019780219780218
3316,1.7019780219780218
3317,1.701172161172161
3318,1.7019780219780218
3319,1.7003663003663003
3320,1.7019780219780218
3321,1.7043956043956043
3322,1.7068131868131868
3323,1.7100366300366299
3324,1.7116483516483516
3325,1.7156776556776556
3326,1.7076190476190476
3327,1.7237362637362637
3328,1.7253479853479852
3329,1.726153846153846
3330,1.7245421245421246
3331,1.7197069597069596
3332,1.7156776556776556
3333,1.7084249084249084
3334,1.7068131868131868
3335,1.6995604395604396
3336,1.697142857142857
3337,1.6939194139194138
3338,1.6923076923076923
3339,1.6906959706959706
3340,1.6906959706959706
3341,1.6923076923076923
3342,1.6915018315018315
3343,1.6915018315018315
3344,1.6939194139194138
3345,1.6947252747252746
3346,1.6955311355311355
3347,1.6947252747252746
3348,1.6939194139194138
3349,1.6931135531135528
3350,1.6931135531135528
3351,1.6923076923076923
3352,1.6915018315018315
3353,1.6906959706959706
3354,1.6898901098901098
3355,1.6898901098901098
3356,1.6898901098901098
3357,1.6947252747252746
3358,1.6931135531135528
3359,1.6947252747252746
3360,1.6963369963369963
3361,1.6987545787545786
3362,1.7027838827838826
3363,1.7068131868131868
3364,1.7132600732600731
3365,1.7172893772893771
3366,1.722930402930403
3367,1.726959706959707
3368,1.730989010989011
3369,1.735018315018315
3370,1.7374358974358972
3371,1.7382417582417582
3372,1.7366300366300367
3373,1.735018315018315
3374,1.730989010989011
3375,1.726153846153846
3376,1.7213186813186812
3377,1.7156776556776556
3378,1.7084249084249084
3379,1.7027838827838826
3380,1.697142857142857
3381,1.6915018315018315
3382,1.6866666666666665
3383,1.6826373626373625
3384,1.6786080586080585
3385,1.6753846153846153
3386,1.6681318681318682
3387,1.6697435897435897
3388,1.6689377289377287
3389,1.6681318681318682
3390,1.6649084249084247
3391,1.6673260073260072
3392,1.6673260073260072
3393,1.6681318681318682
3394,1.6689377289377287
3395,1.6681318681318682
3396,1.6673260073260072
3397,1.6681318681318682
3398,1.6681318681318682
3399,1.6673260073260072
3400,1.6665201465201465
3401,1.6689377289377287
3402,1.6673260073260072
3403,1.6689377289377287
3404,1.6705494505494505
3405,1.6713553113553112
3406,1.6737728937728937
3407,1.6769963369963368
3408,1.6802197802197802
3409,1.6866666666666665
3410,1.6947252747252746
3411,1.7019780219780218
3412,1.709230769230769
3413,1.7148717948717949
3414,1.7213186813186812
3415,1.726959706959707
3416,1.7342124542124542
3417,1.7342124542124542
3418,1.7374358974358972
3419,1.739047619047619
3420,1.7398534798534797
3421,1.7398534798534797
3422,1.7342124542124542
3423,1.735018315018315
3424,1.7326007326007327
3425,1.7293772893772892
3426,1.7253479853479852
3427,1.7205128205128206
3428,1.7164835164835164
3429,1.7116483516483516
3430,1.7068131868131868
3431,1.7019780219780218
3432,1.6963369963369963
3433,1.6915018315018315
3434,1.6866666666666665
3435,1.6826373626373625
3436,1.6802197802197802
3437,1.6761904761904762
3438,1.6761904761904762
3439,1.6729670329670328
3440,1.6721611721611722
3441,1.6721611721611722
3442,1.6705494505494505
3443,1.6713553113553112
3444,1.6729670329670328
3445,1.6737728937728937
3446,1.6761904761904762
3447,1.6778021978021977
3448,1.6810256410256408
3449,1.6858608058608058
3450,1.6866666666666665
3451,1.6906959706959706
3452,1.6947252747252746
3453,1.697142857142857
3454,1.7003663003663003
3455,1.7043956043956043
3456,1.7068131868131868
3457,1.7100366300366299
3458,1.709230769230769
3459,1.7148717948717949
3460,1.7172893772893771
3461,1.7189010989010989
3462,1.7205128205128206
3463,1.722124542124542
3464,1.7213186813186812
3465,1.7213186813186812
3466,1.7205128205128206
3467,1.7197069597069596
3468,1.7172893772893771
3469,1.7156776556776556
3470,1.7148717948717949
3471,1.7124542124542124
3472,1.7100366300366299
3473,1.709230769230769
3474,1.709230769230769
3475,1.7076190476190476
3476,1.7084249084249084
3477,1.7084249084249084
3478,1.7076190476190476
3479,1.7068131868131868
3480,1.7068131868131868
3481,1.7060073260073259
3482,1.7035897435897436
3483,1.7027838827838826
3484,1.7019780219780218
3485,1.7003663003663003
3486,1.7003663003663003
3487,1.7003663003663003
3488,1.7003663003663003
3489,1.6995604395604396
3490,1.6987545787545786
3491,1.6995604395604396
3492,1.6987545787545786
3493,1.6987545787545786
3494,1.6987545787545786
3495,1.6995604395604396
3496,1.6979487179487178
3497,1.6979487179487178
3498,1.6979487179487178
3499,1.6979487179487178
3500,1.6963369963369963
3501,1.697142857142857
3502,1.697142857142857
3503,1.6987545787545786
3504,1.7019780219780218
3505,1.7019780219780218
3506,1.7060073260073259
3507,1.709230769230769
3508,1.7116483516483516
3509,1.7124542124542124
3510,1.7140659340659339
3511,1.7148717948717949
3512,1.718095238095238
3513,1.7197069597069596
3514,1.718095238095238
3515,1.7189010989010989
3516,1.718095238095238
3517,1.7164835164835164
3518,1.7164835164835164
3519,1.7164835164835164
3520,1.7189010989010989
3521,1.7148717948717949
3522,1.7148717948717949
3523,1.7148717948717949
3524,1.7148717948717949
3525,1.7148717948717949
3526,1.6794139194139193
3527,1.7148717948717949
3528,1.7164835164835164
3529,1.7148717948717949
3530,1.7148717948717949
3531,1.7148717948717949
3532,1.7164835164835164
3533,1.7132600732600731
3534,1.7116483516483516
3535,1.7084249084249084
3536,1.7035897435897436
3537,1.6963369963369963
3538,1.6906959706959706
3539,1.6842490842490843
3540,1.6794139194139193
3541,1.6737728937728937
3542,1.6721611721611722
3543,1.6641025641025642
3544,1.6673260073260072
3545,1.6657142857142855
3546,1.6657142857142855
3547,1.6697435897435897
3548,1.6713553113553112
3549,1.6745787545787545
3550,1.6802197802197802
3551,1.6874725274725275
3552,1.6939194139194138
3553,1.7003663003663003
3554,1.7084249084249084
3555,1.7148717948717949
3556,1.7197069597069596
3557,1.722124542124542
3558,1.7253479853479852
3559,1.7277655677655677
3560,1.7342124542124542
3561,1.7317948717948717
3562,1.7326007326007327
3563,1.7326007326007327
3564,1.7213186813186812
3565,1.73018315018315
3566,1.7285714285714286
3567,1.726153846153846
3568,1.722930402930403
3569,1.7197069597069596
3570,1.7172893772893771
3571,1.7148717948717949
3572,1.7124542124542124
3573,1.7108424908424908
3574,1.7108424908424908
3575,1.709230769230769
3576,1.7100366300366299
3577,1.709230769230769
3578,1.709230769230769
3579,1.709230769230769
3580,1.7068131868131868
3581,1.705201465201465
3582,1.7035897435897436
3583,1.7027838827838826
3584,1.6955311355311355
3585,1.7019780219780218
3586,1.7003663003663003
3587,1.701172161172161
3588,1.7035897435897436
3589,1.7019780219780218
3590,1.7035897435897436
3591,1.7043956043956043
3592,1.7084249084249084
3593,1.7124542124542124
3594,1.7148717948717949
3595,1.7197069597069596
3596,1.7213186813186812
3597,1.722124542124542
3598,1.722930402930403
3599,1.7172893772893771
3600,1.7172893772893771
3601,1.7132600732600731
3602,1.7108424908424908
3603,1.7060073260073259
3604,1.7035897435897436
3605,1.6987545787545786
3606,1.6939194139194138
3607,1.6874725274725275
3608,1.6874725274725275
3609,1.6834432234432235
3610,1.6850549450549448
3611,1.6802197802197802
3612,1.6810256410256408
3613,1.6802197802197802
3614,1.6826373626373625
3615,1.6858608058608058
3616,1.6866666666666665
3617,1.6898901098901098
3618,1.6915018315018315
3619,1.6947252747252746
3620,1.697142857142857
3621,1.7019780219780218
3622,1.7035897435897436
3623,1.705201465201465
3624,1.7084249084249084
3625,1.7100366300366299
3626,1.7116483516483516
3627,1.7116483516483516
3628,1.7124542124542124
3629,1.7076190476190476
3630,1.709230769230769
3631,1.7084249084249084
3632,1.7068131868131868
3633,1.7027838827838826
3634,1.6987545787545786
3635,1.6947252747252746
3636,1.6915018315018315
3637,1.6882783882783883
3638,1.6818315018315018
3639,1.6858608058608058
3640,1.6858608058608058
3641,1.6842490842490843
3642,1.6858608058608058
3643,1.6874725274725275
3644,1.6898901098901098
3645,1.6939194139194138
3646,1.6955311355311355
3647,1.7019780219780218
3648,1.7027838827838826
3649,1.7060073260073259
3650,1.7084249084249084
3651,1.7100366300366299
3652,1.7140659340659339
3653,1.7172893772893771
3654,1.7205128205128206
3655,1.722930402930403
3656,1.726153846153846
3657,1.7285714285714286
3658,1.7189010989010989
3659,1.7334065934065932
3660,1.735018315018315
3661,1.7342124542124542
3662,1.7334065934065932
3663,1.7342124542124542
3664,1.7326007326007327
3665,1.7326007326007327
3666,1.73018315018315
3667,1.726959706959707
3668,1.7237362637362637
3669,1.7197069597069596
3670,1.7140659340659339
3671,1.7116483516483516
3672,1.7084249084249084
3673,1.7043956043956043
3674,1.7019780219780218
3675,1.6987545787545786
3676,1.6979487179487178
3677,1.6947252747252746
3678,1.6955311355311355
3679,1.6963369963369963
3680,1.6987545787545786
3681,1.7019780219780218
3682,1.7084249084249084
3683,1.7140659340659339
3684,1.7172893772893771
3685,1.7197069597069596
3686,1.7213186813186812
3687,1.7197069597069596
3688,1.7197069597069596
3689,1.7164835164835164
3690,1.7156776556776556
3691,1.7124542124542124
3692,1.7084249084249084
3693,1.7068131868131868
3694,1.705201465201465
3695,1.701172161172161
3696,1.6987545787545786
3697,1.6955311355311355
3698,1.6923076923076923
3699,1.6882783882783883
3700,1.6866666666666665
3701,1.6842490842490843
3702,1.6826373626373625
3703,1.6802197802197802
3704,1.6632967032967032
3705,1.6769963369963368
3706,1.6761904761904762
3707,1.6745787545787545
3708,1.6761904761904762
3709,1.6745787545787545
3710,1.6769963369963368
3711,1.6802197802197802
3712,1.6842490842490843
3713,1.6890842490842488
3714,1.6947252747252746
3715,1.7019780219780218
3716,1.7084249084249084
3717,1.7164835164835164
3718,1.726959706959707
3719,1.7293772893772892
3720,1.730989010989011
3721,1.73018315018315
3722,1.7293772893772892
3723,1.7277655677655677
3724,1.722930402930403
3725,1.7213186813186812
3726,1.7172893772893771
3727,1.7124542124542124
3728,1.7108424908424908
3729,1.7060073260073259
3730,1.7027838827838826
3731,1.6995604395604396
3732,1.697142857142857
3733,1.6939194139194138
3734,1.6923076923076923
3735,1.6906959706959706
3736,1.6906959706959706
3737,1.6898901098901098
3738,1.6898901098901098
3739,1.6898901098901098
3740,1.6915018315018315
3741,1.6931135531135528
3742,1.6955311355311355
3743,1.6963369963369963
3744,1.6826373626373625
3745,1.6979487179487178
3746,1.6979487179487178
3747,1.6979487179487178
3748,1.6963369963369963
3749,1.6963369963369963
3750,1.6947252747252746
3751,1.6955311355311355
3752,1.6947252747252746
3753,1.6963369963369963
3754,1.6931135531135528
3755,1.6955311355311355
3756,1.6963369963369963
3757,1.6963369963369963
3758,1.697142857142857
3759,1.6955311355311355
3760,1.6947252747252746
3761,1.6955311355311355
3762,1.6963369963369963
3763,1.6955311355311355
3764,1.6979487179487178
3765,1.6987545787545786
3766,1.7003663003663003
3767,1.7019780219780218
3768,1.7035897435897436
3769,1.705201465201465
3770,1.7060073260073259
3771,1.7060073260073259
3772,1.7068131868131868
3773,1.7068131868131868
3774,1.7043956043956043
3775,1.7035897435897436
3776,1.7027838827838826
3777,1.701172161172161
3778,1.701172161172161
3779,1.7019780219780218
3780,1.701172161172161
3781,1.6995604395604396
3782,1.7003663003663003
3783,1.7019780219780218
3784,1.7035897435897436
3785,1.7043956043956043
3786,1.7068131868131868
3787,1.709230769230769
3788,1.7116483516483516
3789,1.7140659340659339
3790,1.7189010989010989
3791,1.7197069597069596
3792,1.7245421245421246
3793,1.7277655677655677
3794,1.7342124542124542
3795,1.7366300366300367
3796,1.743882783882784
3797,1.7406593406593407
3798,1.7422710622710622
3799,1.7422710622710622
3800,1.7406593406593407
3801,1.739047619047619
3802,1.7358241758241757
3803,1.730989010989011
3804,1.7253479853479852
3805,1.7189010989010989
3806,1.7124542124542124
3807,1.7068131868131868
3808,1.697142857142857
3809,1.6955311355311355
3810,1.6915018315018315
3811,1.6874725274725275
3812,1.6842490842490843
3813,1.6810256410256408
3814,1.6786080586080585
3815,1.6745787545787545
3816,1.6713553113553112
3817,1.6665201465201465
3818,1.6632967032967032
3819,1.6608791208791207
3820,1.6568498168498167
3821,1.6568498168498167
3822,1.6552380952380952
3823,1.6552380952380952
3824,1.6568498168498167
3825,1.6584615384615384
3826,1.6616849816849815
3827,1.6649084249084247
3828,1.6681318681318682
3829,1.6713553113553112
3830,1.6705494505494505
3831,1.6761904761904762
3832,1.6834432234432235
3833,1.6874725274725275
3834,1.6923076923076923
3835,1.6963369963369963
3836,1.7027838827838826
3837,1.7140659340659339
3838,1.7148717948717949
3839,1.7189010989010989
3840,1.722930402930403
3841,1.7245421245421246
3842,1.726959706959707
3843,1.7293772893772892
3844,1.7285714285714286
3845,1.7334065934065932
3846,1.7366300366300367
3847,1.7374358974358972
3848,1.739047619047619
3849,1.7414652014652012
3850,1.7446886446886447
3851,1.747106227106227
3852,1.747106227106227
3853,1.7446886446886447
3854,1.7406593406593407
3855,1.7334065934065932
3856,1.726153846153846
3857,1.718095238095238
3858,1.7116483516483516
3859,1.7035897435897436
3860,1.697142857142857
3861,1.6906959706959706
3862,1.6850549450549448
3863,1.6786080586080585
3864,1.6721611721611722
3865,1.6665201465201465
3866,1.6616849816849815
3867,1.6568498168498167
3868,1.6536263736263734
3869,1.6487912087912087
3870,1.6326739926739926
3871,1.6431501831501831
3872,1.6415384615384614
3873,1.6407326007326006
3874,1.6399267399267399
3875,1.6415384615384614
3876,1.6431501831501831
3877,1.6439560439560439
3878,1.6455677655677654
3879,1.6487912087912087
3880,1.652014652014652
3881,1.6552380952380952
3882,1.6592673992673992
3883,1.6624908424908424
3884,1.6697435897435897
3885,1.6745787545787545
3886,1.6641025641025642
3887,1.6858608058608058
3888,1.6939194139194138
3889,1.6987545787545786
3890,1.7027838827838826
3891,1.7068131868131868
3892,1.7084249084249084
3893,1.7100366300366299
3894,1.7100366300366299
3895,1.7100366300366299
3896,1.7124542124542124
3897,1.7116483516483516
3898,1.7108424908424908
3899,1.709230769230769
3900,1.7084249084249084
3901,1.7084249084249084
3902,1.7068131868131868
3903,1.7060073260073259
3904,1.705201465201465
3905,1.7035897435897436
3906,1.7027838827838826
3907,1.7019780219780218
3908,1.7003663003663003
3909,1.6979487179487178
3910,1.6955311355311355
3911,1.6955311355311355
3912,1.6906959706959706
3913,1.6906959706959706
3914,1.6890842490842488
3915,1.6874725274725275
3916,1.6866666666666665
3917,1.6850549450549448
3918,1.6842490842490843
3919,1.6842490842490843
3920,1.6834432234432235
3921,1.6834432234432235
3922,1.6842490842490843
3923,1.6874725274725275
3924,1.6906959706959706
3925,1.6939194139194138
3926,1.697142857142857
3927,1.7003663003663003
3928,1.7027838827838826
3929,1.7043956043956043
3930,1.7060073260073259
3931,1.7060073260073259
3932,1.705201465201465
3933,1.7043956043956043
3934,1.7027838827838826
3935,1.7003663003663003
3936,1.6963369963369963
3937,1.6963369963369963
3938,1.6947252747252746
3939,1.6939194139194138
3940,1.6915018315018315
3941,1.6882783882783883
3942,1.6874725274725275
3943,1.6850549450549448
3944,1.6834432234432235
3945,1.6794139194139193
3946,1.6842490842490843
3947,1.6842490842490843
3948,1.6850549450549448
3949,1.6866666666666665
3950,1.6890842490842488
3951,1.6923076923076923
3952,1.697142857142857
3953,1.6995604395604396
3954,1.7035897435897436
3955,1.705201465201465
3956,1.7068131868131868
3957,1.7076190476190476
3958,1.7100366300366299
3959,1.7116483516483516
3960,1.7156776556776556
3961,1.718095238095238
3962,1.718095238095238
3963,1.7197069597069596
3964,1.7205128205128206
3965,1.7213186813186812
3966,1.718095238095238
3967,1.718095238095238
3968,1.7148717948717949
3969,1.7132600732600731
3970,1.7116483516483516
3971,1.7076190476190476
3972,1.7035897435897436
3973,1.7003663003663003
3974,1.6955311355311355
3975,1.6939194139194138
3976,1.6906959706959706
3977,1.6882783882783883
3978,1.6866666666666665
3979,1.6842490842490843
3980,1.6842490842490843
3981,1.6826373626373625
3982,1.6818315018315018
3983,1.6810256410256408
3984,1.6794139194139193
3985,1.6786080586080585
3986,1.6810256410256408
3987,1.6778021978021977
3988,1.6778021978021977
3989,1.6794139194139193
3990,1.6802197802197802
3991,1.6818315018315018
3992,1.6826373626373625
3993,1.6858608058608058
3994,1.6890842490842488
3995,1.6898901098901098
3996,1.6939194139194138
3997,1.6979487179487178
3998,1.6947252747252746
3999,1.6979487179487178
4000,1.7003663003663003
4001,1.7019780219780218
4002,1.7043956043956043
4003,1.7003663003663003
4004,1.7003663003663003
4005,1.6979487179487178
4006,1.697142857142857
4007,1.6963369963369963
4008,1.6955311355311355
4009,1.6979487179487178
4010,1.697142857142857
4011,1.697142857142857
4012,1.6955311355311355
4013,1.6923076923076923
4014,1.6947252747252746
4015,1.6923076923076923
4016,1.6923076923076923
4017,1.6915018315018315
4018,1.6923076923076923
4019,1.6939194139194138
4020,1.6955311355311355
4021,1.6963369963369963
4022,1.6931135531135528
4023,1.6979487179487178
4024,1.6979487179487178
4025,1.697142857142857
4026,1.6979487179487178
4027,1.6979487179487178
4028,1.6963369963369963
4029,1.6955311355311355
4030,1.6923076923076923
4031,1.6906959706959706
4032,1.6882783882783883
4033,1.6858608058608058
4034,1.6850549450549448
4035,1.6810256410256408
4036,1.6810256410256408
4037,1.6794139194139193
4038,1.6810256410256408
4039,1.6802197802197802
4040,1.6818315018315018
4041,1.6834432234432235
4042,1.6874725274725275
4043,1.6898901098901098
4044,1.6939194139194138
4045,1.6979487179487178
4046,1.7035897435897436
4047,1.7035897435897436
4048,1.705201465201465
4049,1.7035897435897436
4050,1.7003663003663003
4051,1.6987545787545786
4052,1.6931135531135528
4053,1.6906959706959706
4054,1.6882783882783883
4055,1.6866666666666665
4056,1.6979487179487178
4057,1.6826373626373625
4058,1.6826373626373625
4059,1.6818315018315018
4060,1.6778021978021977
4061,1.6810256410256408
4062,1.6802197802197802
4063,1.6745787545787545
4064,1.6778021978021977
4065,1.6761904761904762
4066,1.6753846153846153
4067,1.6745787545787545
4068,1.6737728937728937
4069,1.6729670329670328
4070,1.6713553113553112
4071,1.6705494505494505
4072,1.6713553113553112
4073,1.6721611721611722
4074,1.6761904761904762
4075,1.6769963369963368
4076,1.6858608058608058
4077,1.6939194139194138
4078,1.7019780219780218
4079,1.7108424908424908
4080,1.7205128205128206
4081,1.7285714285714286
4082,1.7342124542124542
4083,1.7374358974358972
4084,1.7382417582417582
4085,1.7374358974358972
4086,1.7317948717948717
4087,1.7317948717948717
4088,1.7285714285714286
4089,1.7213186813186812
4090,1.7164835164835164
4091,1.7100366300366299
4092,1.7027838827838826
4093,1.6955311355311355
4094,1.6882783882783883
4095,1.6810256410256408
4096,1.6729670329670328
4097,1.6673260073260072
4098,1.6632967032967032
4099,1.6584615384615384
4100,1.6552380952380952
4101,1.6544322344322344
4102,1.6536263736263734
4103,1.6536263736263734
4104,1.6528205128205127
4105,1.6552380952380952
4106,1.6576556776556775
4107,1.6568498168498167
4108,1.6584615384615384
4109,1.6600732600732602
4110,1.6697435897435897
4111,1.6624908424908424
4112,1.6649084249084247
4113,1.6681318681318682
4114,1.6713553113553112
4115,1.6745787545787545
4116,1.6778021978021977
4117,1.6834432234432235
4118,1.6842490842490843
4119,1.6882783882783883
4120,1.6906959706959706
4121,1.6931135531135528
4122,1.6939194139194138
4123,1.6963369963369963
4124,1.697142857142857
4125,1.697142857142857
4126,1.7003663003663003
4127,1.6987545787545786
4128,1.701172161172161
4129,1.7019780219780218
4130,1.6955311355311355
4131,1.6995604395604396
4132,1.6963369963369963
4133,1.6955311355311355
4134,1.6939194139194138
4135,1.6923076923076923
4136,1.6890842490842488
4137,1.6923076923076923
4138,1.6898901098901098
4139,1.6915018315018315
4140,1.6923076923076923
4141,1.6923076923076923
4142,1.6931135531135528
4143,1.6931135531135528
4144,1.6931135531135528
4145,1.7019780219780218
4146,1.7019780219780218
4147,1.7035897435897436
4148,1.7035897435897436
4149,1.7035897435897436
4150,1.7035897435897436
4151,1.7035897435897436
4152,1.7027838827838826
4153,1.7003663003663003
4154,1.6995604395604396
4155,1.697142857142857
4156,1.6963369963369963
4157,1.6923076923076923
4158,1.6923076923076923
4159,1.6898901098901098
4160,1.6882783882783883
4161,1.6858608058608058
4162,1.6834432234432235
4163,1.6818315018315018
4164,1.6745787545787545
4165,1.6737728937728937
4166,1.6713553113553112
4167,1.6697435897435897
4168,1.6665201465201465
4169,1.6641025641025642
4170,1.6624908424908424
4171,1.6592673992673992
4172,1.6576556776556775
4173,1.656043956043956
4174,1.6552380952380952
4175,1.6544322344322344
4176,1.6544322344322344
4177,1.6552380952380952
4178,1.6552380952380952
4179,1.6584615384615384
4180,1.6616849816849815
4181,1.6665201465201465
4182,1.6697435897435897
4183,1.6745787545787545
4184,1.6794139194139193
4185,1.6850549450549448
4186,1.6882783882783883
4187,1.6939194139194138
4188,1.6987545787545786
4189,1.7027838827838826
4190,1.7068131868131868
4191,1.7116483516483516
4192,1.7148717948717949
4193,1.7164835164835164
4194,1.7189010989010989
4195,1.7189010989010989
4196,1.7164835164835164
4197,1.7140659340659339
4198,1.7116483516483516
4199,1.7084249084249084
4200,1.7043956043956043
4201,1.6979487179487178
4202,1.6898901098901098
4203,1.6866666666666665
4204,1.6842490842490843
4205,1.6786080586080585
4206,1.6778021978021977
4207,1.6729670329670328
4208,1.6721611721611722
4209,1.6713553113553112
4210,1.6673260073260072
4211,1.6657142857142855
4212,1.6649084249084247
4213,1.6665201465201465
4214,1.6608791208791207
4215,1.6616849816849815
4216,1.6632967032967032
4217,1.6641025641025642
4218,1.6657142857142855
4219,1.6681318681318682
4220,1.6681318681318682
4221,1.6697435897435897
4222,1.6721611721611722
4223,1.6737728937728937
4224,1.6769963369963368
4225,1.6794139194139193
4226,1.6850549450549448
4227,1.6915018315018315
4228,1.6955311355311355
4229,1.6995604395604396
4230,1.7027838827838826
4231,1.7076190476190476
4232,1.7084249084249084
4233,1.7116483516483516
4234,1.7148717948717949
4235,1.7148717948717949
4236,1.7132600732600731
4237,1.7084249084249084
4238,1.7019780219780218
4239,1.6923076923076923
4240,1.6858608058608058
4241,1.6786080586080585
4242,1.6721611721611722
4243,1.6649084249084247
4244,1.6576556776556775
4245,1.6504029304029304
4246,1.647985347985348
4247,1.6407326007326006
4248,1.6367032967032966
4249,1.6334798534798534
4250,1.635091575091575
4251,1.6318681318681318
4252,1.6318681318681318
4253,1.6326739926739926
4254,1.6326739926739926
4255,1.6334798534798534
4256,1.6358974358974359
4257,1.6358974358974359
4258,1.6383150183150181
4259,1.6415384615384614
4260,1.6439560439560439
4261,1.6431501831501831
4262,1.6463736263736264
4263,1.652014652014652
4264,1.656043956043956
4265,1.6600732600732602
4266,1.6608791208791207
4267,1.6665201465201465
4268,1.6729670329670328
4269,1.6713553113553112
4270,1.6786080586080585
4271,1.6826373626373625
4272,1.6769963369963368
4273,1.6882783882783883
4274,1.6898901098901098
4275,1.6915018315018315
4276,1.6906959706959706
4277,1.6906959706959706
4278,1.6915018315018315
4279,1.6923076923076923
4280,1.6915018315018315
4281,1.6906959706959706
4282,1.6890842490842488
4283,1.6882783882783883
4284,1.6866666666666665
4285,1.6858608058608058
4286,1.6826373626373625
4287,1.6794139194139193
4288,1.6761904761904762
4289,1.6761904761904762
4290,1.6761904761904762
4291,1.6761904761904762
4292,1.6786080586080585
4293,1.6810256410256408
4294,1.6842490842490843
4295,1.6858608058608058
4296,1.6882783882783883
4297,1.6931135531135528
4298,1.6979487179487178
4299,1.7019780219780218
4300,1.7035897435897436
4301,1.7027838827838826
4302,1.6995604395604396
4303,1.6979487179487178
4304,1.6906959706959706
4305,1.6850549450549448
4306,1.6818315018315018
4307,1.6761904761904762
4308,1.6721611721611722
4309,1.6681318681318682
4310,1.6641025641025642
4311,1.6592673992673992
4312,1.6576556776556775
4313,1.6544322344322344
4314,1.652014652014652
4315,1.647985347985348
4316,1.6455677655677654
4317,1.6447619047619046
4318,1.6439560439560439
4319,1.6415384615384614
4320,1.6447619047619046
4321,1.6455677655677654
4322,1.6447619047619046
4323,1.652014652014652
4324,1.656043956043956
4325,1.6600732600732602
4326,1.6649084249084247
4327,1.6697435897435897
4328,1.6737728937728937
4329,1.6778021978021977
4330,1.6810256410256408
4331,1.6858608058608058
4332,1.6874725274725275
4333,1.6906959706959706
4334,1.6947252747252746
4335,1.6979487179487178
4336,1.7019780219780218
4337,1.7043956043956043
4338,1.7068131868131868
4339,1.7116483516483516
4340,1.7164835164835164
4341,1.722124542124542
4342,1.73018315018315
4343,1.7358241758241757
4344,1.7398534798534797
4345,1.7414652014652012
4346,1.7422710622710622
4347,1.7422710622710622
4348,1.739047619047619
4349,1.7342124542124542
4350,1.726959706959707
4351,1.7189010989010989
4352,1.7108424908424908
4353,1.6995604395604396
4354,1.6898901098901098
4355,1.6786080586080585
4356,1.6681318681318682
4357,1.6584615384615384
4358,1.6528205128205127
4359,1.6391208791208791
4360,1.6318681318681318
4361,1.622197802197802
4362,1.618168498168498
4363,1.6133333333333333
4364,1.6093040293040293
4365,1.6068864468864468
4366,1.6084981684981683
4367,1.606080586080586
4368,1.6068864468864468
4369,1.6109157509157508
4370,1.614139194139194
4371,1.6205860805860803
4372,1.622197802197802
4373,1.626227106227106
4374,1.6334798534798534
4375,1.6399267399267399
4376,1.6471794871794871
4377,1.6536263736263734
4378,1.6568498168498167
4379,1.6673260073260072
4380,1.6721611721611722
4381,1.6786080586080585
4382,1.6818315018315018
4383,1.6866666666666665
4384,1.6890842490842488
4385,1.6882783882783883
4386,1.6898901098901098
4387,1.6898901098901098
4388,1.6915018315018315
4389,1.6931135531135528
4390,1.6947252747252746
4391,1.6963369963369963
4392,1.6955311355311355
4393,1.697142857142857
4394,1.6979487179487178
4395,1.6987545787545786
4396,1.6995604395604396
4397,1.6995604395604396
4398,1.6987545787545786
4399,1.6979487179487178
4400,1.6955311355311355
4401,1.6923076923076923
4402,1.6915018315018315
4403,1.6890842490842488
4404,1.6866666666666665
4405,1.6842490842490843
4406,1.6826373626373625
4407,1.6794139194139193
4408,1.6794139194139193
4409,1.6769963369963368
4410,1.6769963369963368
4411,1.6737728937728937
4412,1.6673260073260072
4413,1.6665201465201465
4414,1.6624908424908424
4415,1.656043956043956
4416,1.652014652014652
4417,1.6463736263736264
4418,1.6278388278388278
4419,1.6431501831501831
4420,1.6439560439560439
4421,1.6447619047619046
4422,1.647985347985348
4423,1.6512087912087912
4424,1.6544322344322344
4425,1.6568498168498167
4426,1.6584615384615384
4427,1.6592673992673992
4428,1.6616849816849815
4429,1.6592673992673992
4430,1.6616849816849815
4431,1.6600732600732602
4432,1.6600732600732602
4433,1.6600732600732602
4434,1.6608791208791207
4435,1.6608791208791207
4436,1.6608791208791207
4437,1.6632967032967032
4438,1.6552380952380952
4439,1.6665201465201465
4440,1.6697435897435897
4441,1.6697435897435897
4442,1.6697435897435897
4443,1.6689377289377287
4444,1.6689377289377287
4445,1.6697435897435897
4446,1.6673260073260072
4447,1.6665201465201465
4448,1.6665201465201465
4449,1.6657142857142855
4450,1.6632967032967032
4451,1.6616849816849815
4452,1.6608791208791207
4453,1.6592673992673992
4454,1.6576556776556775
4455,1.6576556776556775
4456,1.6576556776556775
4457,1.6568498168498167
4458,1.656043956043956
4459,1.6568498168498167
4460,1.6568498168498167
4461,1.6568498168498167
4462,1.6568498168498167
4463,1.6568498168498167
4464,1.6584615384615384
4465,1.6584615384615384
4466,1.6584615384615384
4467,1.6592673992673992
4468,1.6592673992673992
4469,1.6600732600732602
4470,1.6665201465201465
4471,1.6624908424908424
4472,1.6641025641025642
4473,1.6665201465201465
4474,1.6512087912087912
4475,1.6697435897435897
4476,1.6713553113553112
4477,1.6737728937728937
4478,1.6761904761904762
4479,1.6794139194139193
4480,1.6826373626373625
4481,1.6842490842490843
4482,1.6850549450549448
4483,1.6858608058608058
4484,1.6866666666666665
4485,1.6866666666666665
4486,1.6874725274725275
4487,1.6858608058608058
4488,1.6826373626373625
4489,1.6858608058608058
4490,1.6834432234432235
4491,1.6834432234432235
4492,1.6818315018315018
4493,1.6802197802197802
4494,1.6802197802197802
4495,1.6794139194139193
4496,1.6761904761904762
4497,1.6745787545787545
4498,1.6745787545787545
4499,1.6705494505494505
4500,1.6681318681318682
4501,1.6665201465201465
4502,1.6632967032967032
4503,1.6608791208791207
4504,1.6576556776556775
4505,1.6552380952380952
4506,1.6552380952380952
4507,1.6536263736263734
4508,1.6536263736263734
4509,1.6536263736263734
4510,1.6544322344322344
4511,1.6552380952380952
4512,1.656043956043956
4513,1.6576556776556775
4514,1.6584615384615384
4515,1.6608791208791207
4516,1.6624908424908424
4517,1.6649084249084247
4518,1.6697435897435897
4519,1.6729670329670328
4520,1.6761904761904762
4521,1.6810256410256408
4522,1.6850549450549448
4523,1.6874725274725275
4524,1.6890842490842488
4525,1.6906959706959706
4526,1.6906959706959706
4527,1.6906959706959706
4528,1.6874725274725275
4529,1.6842490842490843
4530,1.6818315018315018
4531,1.6794139194139193
4532,1.6778021978021977
4533,1.6786080586080585
4534,1.6786080586080585
4535,1.6810256410256408
4536,1.6818315018315018
4537,1.6842490842490843
4538,1.6882783882783883
4539,1.6915018315018315
4540,1.6955311355311355
4541,1.6987545787545786
4542,1.701172161172161
4543,1.7019780219780218
4544,1.7003663003663003
4545,1.7019780219780218
4546,1.701172161172161
4547,1.6995604395604396
4548,1.6995604395604396
4549,1.6955311355311355
4550,1.6923076923076923
4551,1.6874725274725275
4552,1.6786080586080585
4553,1.6761904761904762
4554,1.6713553113553112
4555,1.6665201465201465
4556,1.6616849816849815
4557,1.6592673992673992
4558,1.6568498168498167
4559,1.6536263736263734
4560,1.6528205128205127
4561,1.6504029304029304
4562,1.6471794871794871
4563,1.6455677655677654
4564,1.6455677655677654
4565,1.6447619047619046
4566,1.6455677655677654
4567,1.6447619047619046
4568,1.6455677655677654
4569,1.6455677655677654
4570,1.6471794871794871
4571,1.6487912087912087
4572,1.6504029304029304
4573,1.6536263736263734
4574,1.6568498168498167
4575,1.6600732600732602
4576,1.6608791208791207
4577,1.6632967032967032
4578,1.6641025641025642
4579,1.6641025641025642
4580,1.6463736263736264
4581,1.6632967032967032
4582,1.6632967032967032
4583,1.6624908424908424
4584,1.6576556776556775
4585,1.6616849816849815
4586,1.6600732600732602
4587,1.6616849816849815
4588,1.6624908424908424
4589,1.6665201465201465
4590,1.6673260073260072
4591,1.6705494505494505
4592,1.6745787545787545
4593,1.6786080586080585
4594,1.6810256410256408
4595,1.6818315018315018
4596,1.6810256410256408
4597,1.6802197802197802
4598,1.6794139194139193
4599,1.6786080586080585
4600,1.6794139194139193
4601,1.6786080586080585
4602,1.6778021978021977
4603,1.6745787545787545
4604,1.6713553113553112
4605,1.6673260073260072
4606,1.6616849816849815
4607,1.6584615384615384
4608,1.6536263736263734
4609,1.6512087912087912
4610,1.6471794871794871
4611,1.6447619047619046
4612,1.6423443223443221
4613,1.6391208791208791
4614,1.6383150183150181
4615,1.6358974358974359
4616,1.6326739926739926
4617,1.635091575091575
4618,1.6358974358974359
4619,1.6367032967032966
4620,1.635091575091575
4621,1.6407326007326006
4622,1.6455677655677654
4623,1.6512087912087912
4624,1.6568498168498167
4625,1.6608791208791207
4626,1.6681318681318682
4627,1.6745787545787545
4628,1.6810256410256408
4629,1.6906959706959706
4630,1.697142857142857
4631,1.7068131868131868
4632,1.7156776556776556
4633,1.7245421245421246
4634,1.7317948717948717
4635,1.7334065934065932
4636,1.735018315018315
4637,1.7326007326007327
4638,1.7293772893772892
4639,1.7172893772893771
4640,1.7140659340659339
4641,1.7060073260073259
4642,1.6987545787545786
4643,1.6898901098901098
4644,1.6826373626373625
4645,1.6761904761904762
4646,1.6705494505494505
4647,1.6641025641025642
4648,1.6600732600732602
4649,1.656043956043956
4650,1.652014652014652
4651,1.647985347985348
4652,1.6447619047619046
4653,1.6423443223443221
4654,1.6399267399267399
4655,1.6383150183150181
4656,1.6391208791208791
4657,1.6383150183150181
4658,1.6383150183150181
4659,1.6431501831501831
4660,1.6399267399267399
4661,1.6423443223443221
4662,1.6431501831501831
4663,1.6447619047619046
4664,1.6463736263736264
4665,1.647985347985348
4666,1.6536263736263734
4667,1.6568498168498167
4668,1.6600732600732602
4669,1.6641025641025642
4670,1.6673260073260072
4671,1.6713553113553112
4672,1.6761904761904762
4673,1.6769963369963368
4674,1.6794139194139193
4675,1.6802197802197802
4676,1.6818315018315018
4677,1.6834432234432235
4678,1.6834432234432235
4679,1.6850549450549448
4680,1.6850549450549448
4681,1.6866666666666665
4682,1.6898901098901098
4683,1.6923076923076923
4684,1.6963369963369963
4685,1.6979487179487178
4686,1.6987545787545786
4687,1.6987545787545786
4688,1.697142857142857
4689,1.6955311355311355
4690,1.6923076923076923
4691,1.6898901098901098
4692,1.6866666666666665
4693,1.6826373626373625
4694,1.6794139194139193
4695,1.6769963369963368
4696,1.6729670329670328
4697,1.6713553113553112
4698,1.6689377289377287
4699,1.6681318681318682
4700,1.6665201465201465
4701,1.6657142857142855
4702,1.6649084249084247
4703,1.6649084249084247
4704,1.6600732600732602
4705,1.6641025641025642
4706,1.6632967032967032
4707,1.6641025641025642
4708,1.6649084249084247
4709,1.6641025641025642
4710,1.6624908424908424
4711,1.6649084249084247
4712,1.6681318681318682
4713,1.6713553113553112
4714,1.6721611721611722
4715,1.6761904761904762
4716,1.6786080586080585
4717,1.6826373626373625
4718,1.6842490842490843
4719,1.6866666666666665
4720,1.6874725274725275
4721,1.6898901098901098
4722,1.6898901098901098
4723,1.6890842490842488
4724,1.6906959706959706
4725,1.6890842490842488
4726,1.6874725274725275
4727,1.6874725274725275
4728,1.6874725274725275
4729,1.6874725274725275
4730,1.6874725274725275
4731,1.6874725274725275
4732,1.6882783882783883
4733,1.6890842490842488
4734,1.6874725274725275
4735,1.6866666666666665
4736,1.6858608058608058
4737,1.6826373626373625
4738,1.6794139194139193
4739,1.6769963369963368
4740,1.6745787545787545
4741,1.6745787545787545
4742,1.6745787545787545
4743,1.6761904761904762
4744,1.6778021978021977
4745,1.6794139194139193
4746,1.6810256410256408
4747,1.6826373626373625
4748,1.6850549450549448
4749,1.6858608058608058
4750,1.6882783882783883
4751,1.6866666666666665
4752,1.6874725274725275
4753,1.6874725274725275
4754,1.6890842490842488
4755,1.6882783882783883
4756,1.6915018315018315
4757,1.6939194139194138
4758,1.697142857142857
4759,1.6979487179487178
4760,1.7019780219780218
4761,1.7035897435897436
4762,1.7043956043956043
4763,1.7060073260073259
4764,1.7084249084249084
4765,1.7100366300366299
4766,1.7148717948717949
4767,1.7108424908424908
4768,1.7084249084249084
4769,1.7027838827838826
4770,1.697142857142857
4771,1.6906959706959706
4772,1.6858608058608058
4773,1.6794139194139193
4774,1.6745787545787545
4775,1.6657142857142855
4776,1.6657142857142855
4777,1.6632967032967032
4778,1.6608791208791207
4779,1.6584615384615384
4780,1.6455677655677654
4781,1.6592673992673992
4782,1.6592673992673992
4783,1.6584615384615384
4784,1.6608791208791207
4785,1.6616849816849815
4786,1.6624908424908424
4787,1.6632967032967032
4788,1.6649084249084247
4789,1.6673260073260072
4790,1.6689377289377287
4791,1.6713553113553112
4792,1.6737728937728937
4793,1.6769963369963368
4794,1.6802197802197802
4795,1.6826373626373625
4796,1.6834432234432235
4797,1.6858608058608058
4798,1.6890842490842488
4799,1.6923076923076923
4800,1.6963369963369963
4801,1.6979487179487178
4802,1.7019780219780218
4803,1.7027838827838826
4804,1.7035897435897436
4805,1.7035897435897436
4806,1.7035897435897436
4807,1.7019780219780218
4808,1.6995604395604396
4809,1.697142857142857
4810,1.6955311355311355
4811,1.6931135531135528
4812,1.6906959706959706
4813,1.6898901098901098
4814,1.6898901098901098
4815,1.6898901098901098
4816,1.6810256410256408
4817,1.6947252747252746
4818,1.6995604395604396
4819,1.7043956043956043
4820,1.7108424908424908
4821,1.7164835164835164
4822,1.722930402930403
4823,1.722124542124542
4824,1.726153846153846
4825,1.726153846153846
4826,1.726153846153846
4827,1.7237362637362637
4828,1.7205128205128206
4829,1.7164835164835164
4830,1.7132600732600731
4831,1.709230769230769
4832,1.7035897435897436
4833,1.7019780219780218
4834,1.697142857142857
4835,1.6931135531135528
4836,1.6906959706959706
4837,1.6866666666666665
4838,1.6842490842490843
4839,1.6810256410256408
4840,1.6778021978021977
4841,1.6761904761904762
4842,1.6737728937728937
4843,1.6721611721611722
4844,1.6552380952380952
4845,1.6705494505494505
4846,1.6697435897435897
4847,1.6697435897435897
4848,1.6713553113553112
4849,1.6721611721611722
4850,1.6761904761904762
4851,1.6761904761904762
4852,1.6794139194139193
4853,1.6818315018315018
4854,1.6810256410256408
4855,1.6874725274725275
4856,1.6931135531135528
4857,1.6923076923076923
4858,1.6963369963369963
4859,1.7003663003663003
4860,1.7060073260073259
4861,1.7116483516483516
4862,1.718095238095238
4863,1.7237362637362637
4864,1.730989010989011
4865,1.7382417582417582
4866,1.7463003663003662
4867,1.7463003663003662
4868,1.7463003663003662
4869,1.743882783882784
4870,1.7398534798534797
4871,1.7326007326007327
4872,1.726153846153846
4873,1.7205128205128206
4874,1.7140659340659339
4875,1.7076190476190476
4876,1.7019780219780218
4877,1.6955311355311355
4878,1.6906959706959706
4879,1.6866666666666665
4880,1.6826373626373625
4881,1.6786080586080585
4882,1.6745787545787545
4883,1.6721611721611722
4884,1.6705494505494505
4885,1.6689377289377287
4886,1.6657142857142855
4887,1.6665201465201465
4888,1.6657142857142855
4889,1.6649084249084247
4890,1.6657142857142855
4891,1.6657142857142855
4892,1.6657142857142855
4893,1.6657142857142855
4894,1.6665201465201465
4895,1.6681318681318682
4896,1.6705494505494505
4897,1.6737728937728937
4898,1.6769963369963368
4899,1.6802197802197802
4900,1.6826373626373625
4901,1.6866666666666665
4902,1.6898901098901098
4903,1.6939194139194138
4904,1.6987545787545786
4905,1.7035897435897436
4906,1.7084249084249084
4907,1.7140659340659339
4908,1.7172893772893771
4909,1.7197069597069596
4910,1.7213186813186812
4911,1.7213186813186812
4912,1.7213186813186812
4913,1.7164835164835164
4914,1.7132600732600731
4915,1.709230769230769
4916,1.705201465201465
4917,1.7027838827838826
4918,1.6987545787545786
4919,1.6955311355311355
4920,1.6939194139194138
4921,1.6939194139194138
4922,1.6947252747252746
4923,1.6963369963369963
4924,1.6979487179487178
4925,1.6995604395604396
4926,1.7027838827838826
4927,1.7043956043956043
4928,1.7076190476190476
4929,1.709230769230769
4930,1.7068131868131868
4931,1.709230769230769
4932,1.7060073260073259
4933,1.7019780219780218
4934,1.697142857142857
4935,1.6923076923076923
4936,1.6882783882783883
4937,1.6826373626373625
4938,1.6778021978021977
4939,1.6753846153846153
4940,1.6713553113553112
4941,1.6697435897435897
4942,1.6681318681318682
4943,1.6657142857142855
4944,1.6657142857142855
4945,1.6673260073260072
4946,1.6681318681318682
4947,1.6681318681318682
4948,1.6697435897435897
4949,1.6729670329670328
4950,1.6769963369963368
4951,1.6794139194139193
4952,1.6842490842490843
4953,1.6858608058608058
4954,1.6882783882783883
4955,1.6882783882783883
4956,1.6890842490842488
4957,1.6882783882783883
4958,1.6882783882783883
4959,1.6882783882783883
4960,1.6874725274725275
4961,1.6858608058608058
4962,1.6850549450549448
4963,1.6834432234432235
4964,1.6826373626373625
4965,1.6826373626373625
4966,1.6826373626373625
4967,1.6802197802197802
4968,1.6769963369963368
4969,1.6786080586080585
4970,1.6778021978021977
4971,1.6778021978021977
4972,1.6778021978021977
4973,1.6794139194139193
4974,1.6794139194139193
4975,1.6769963369963368
4976,1.6802197802197802
4977,1.6802197802197802
4978,1.6826373626373625
4979,1.6826373626373625
4980,1.6842490842490843
4981,1.6850549450549448
4982,1.6818315018315018
4983,1.6866666666666665
4984,1.6874725274725275
4985,1.6882783882783883
4986,1.6874725274725275
4987,1.6874725274725275
4988,1.6890842490842488
4989,1.6898901098901098
4990,1.6923076923076923
4991,1.6923076923076923
4992,1.6955311355311355
4993,1.6963369963369963
4994,1.6979487179487178
4995,1.6987545787545786
4996,1.7019780219780218
4997,1.7027838827838826
4998,1.7035897435897436
4999,1.7043956043956043
