indice,voltaje
0,1.722930402930403
1,1.7334065934065932
2,1.7398534798534797
3,1.7446886446886447
4,1.747912087912088
5,1.7567765567765568
6,1.7575824175824175
7,1.7624175824175823
8,1.7616117216117215
9,1.7616117216117215
10,1.759194139194139
11,1.7567765567765568
12,1.751135531135531
13,1.743076923076923
14,1.7374358974358972
15,1.722124542124542
16,1.7213186813186812
17,1.7124542124542124
18,1.7035897435897436
19,1.6995604395604396
20,1.6931135531135528
21,1.6842490842490843
22,1.6818315018315018
23,1.6761904761904762
24,1.6721611721611722
25,1.6721611721611722
26,1.6778021978021977
27,1.6737728937728937
28,1.6761904761904762
29,1.6761904761904762
30,1.6915018315018315
31,1.6834432234432235
32,1.6858608058608058
33,1.6915018315018315
34,1.6955311355311355
35,1.6923076923076923
36,1.7084249084249084
37,1.7124542124542124
38,1.7148717948717949
39,1.7253479853479852
40,1.7237362637362637
41,1.722930402930403
42,1.726959706959707
43,1.7293772893772892
44,1.726153846153846
45,1.7245421245421246
46,1.7189010989010989
47,1.7197069597069596
48,1.7068131868131868
49,1.705201465201465
50,1.6979487179487178
51,1.697142857142857
52,1.6890842490842488
53,1.6826373626373625
54,1.6786080586080585
55,1.6802197802197802
56,1.6705494505494505
57,1.6737728937728937
58,1.6705494505494505
59,1.6729670329670328
60,1.6705494505494505
61,1.6713553113553112
62,1.6753846153846153
63,1.6769963369963368
64,1.6826373626373625
65,1.6874725274725275
66,1.6890842490842488
67,1.6963369963369963
68,1.7003663003663003
69,1.709230769230769
70,1.7108424908424908
71,1.7172893772893771
72,1.7213186813186812
73,1.7277655677655677
74,1.7277655677655677
75,1.7317948717948717
76,1.7317948717948717
77,1.735018315018315
78,1.7277655677655677
79,1.726959706959707
80,1.7189010989010989
81,1.7277655677655677
82,1.7189010989010989
83,1.7172893772893771
84,1.7148717948717949
85,1.7124542124542124
86,1.7084249084249084
87,1.7019780219780218
88,1.6955311355311355
89,1.6923076923076923
90,1.6939194139194138
91,1.6882783882783883
92,1.6915018315018315
93,1.6874725274725275
94,1.6850549450549448
95,1.6882783882783883
96,1.6939194139194138
97,1.6931135531135528
98,1.6947252747252746
99,1.6979487179487178
100,1.697142857142857
101,1.7027838827838826
102,1.7060073260073259
103,1.7043956043956043
104,1.7068131868131868
105,1.7060073260073259
106,1.7003663003663003
107,1.7027838827838826
108,1.697142857142857
109,1.7019780219780218
110,1.6955311355311355
111,1.6947252747252746
112,1.6915018315018315
113,1.6931135531135528
114,1.6906959706959706
115,1.6898901098901098
116,1.6769963369963368
117,1.6842490842490843
118,1.6834432234432235
119,1.6826373626373625
120,1.6794139194139193
121,1.6778021978021977
122,1.6745787545787545
123,1.6802197802197802
124,1.6778021978021977
125,1.6737728937728937
126,1.6794139194139193
127,1.6939194139194138
128,1.6882783882783883
129,1.6995604395604396
130,1.7019780219780218
131,1.7116483516483516
132,1.7100366300366299
133,1.7148717948717949
134,1.7189010989010989
135,1.730989010989011
136,1.7317948717948717
137,1.7326007326007327
138,1.7358241758241757
139,1.7358241758241757
140,1.7406593406593407
141,1.7382417582417582
142,1.7342124542124542
143,1.7366300366300367
144,1.7293772893772892
145,1.7317948717948717
146,1.7213186813186812
147,1.7213186813186812
148,1.7148717948717949
149,1.7148717948717949
150,1.7060073260073259
151,1.7027838827838826
152,1.6931135531135528
153,1.6906959706959706
154,1.6858608058608058
155,1.6882783882783883
156,1.6802197802197802
157,1.6890842490842488
158,1.6826373626373625
159,1.6882783882783883
160,1.6858608058608058
161,1.6963369963369963
162,1.6947252747252746
163,1.7027838827838826
164,1.7019780219780218
165,1.7043956043956043
166,1.7108424908424908
167,1.7197069597069596
168,1.7197069597069596
169,1.7277655677655677
170,1.726153846153846
171,1.7317948717948717
172,1.7366300366300367
173,1.739047619047619
174,1.7398534798534797
175,1.7374358974358972
176,1.735018315018315
177,1.735018315018315
178,1.7342124542124542
179,1.73018315018315
180,1.7277655677655677
181,1.722124542124542
182,1.7237362637362637
183,1.7140659340659339
184,1.7084249084249084
185,1.7068131868131868
186,1.7019780219780218
187,1.6963369963369963
188,1.6923076923076923
189,1.6890842490842488
190,1.6818315018315018
191,1.6826373626373625
192,1.6834432234432235
193,1.6915018315018315
194,1.6850549450549448
195,1.6842490842490843
196,1.6810256410256408
197,1.6890842490842488
198,1.6931135531135528
199,1.6947252747252746
200,1.6987545787545786
201,1.7043956043956043
202,1.7076190476190476
203,1.7068131868131868
204,1.7132600732600731
205,1.718095238095238
206,1.7148717948717949
207,1.7205128205128206
208,1.7197069597069596
209,1.7172893772893771
210,1.7164835164835164
211,1.7197069597069596
212,1.7116483516483516
213,1.7084249084249084
214,1.705201465201465
215,1.7035897435897436
216,1.7019780219780218
217,1.6931135531135528
218,1.6915018315018315
219,1.6842490842490843
220,1.6834432234432235
221,1.6794139194139193
222,1.6818315018315018
223,1.6794139194139193
224,1.6729670329670328
225,1.6786080586080585
226,1.6802197802197802
227,1.6826373626373625
228,1.6802197802197802
229,1.6858608058608058
230,1.6834432234432235
231,1.6906959706959706
232,1.697142857142857
233,1.7035897435897436
234,1.7068131868131868
235,1.7100366300366299
236,1.7172893772893771
237,1.7164835164835164
238,1.722930402930403
239,1.7189010989010989
240,1.7237362637362637
241,1.7245421245421246
242,1.722930402930403
243,1.7189010989010989
244,1.7197069597069596
245,1.7132600732600731
246,1.7100366300366299
247,1.7068131868131868
248,1.7003663003663003
249,1.6987545787545786
250,1.6923076923076923
251,1.6882783882783883
252,1.6842490842490843
253,1.6786080586080585
254,1.6729670329670328
255,1.6761904761904762
256,1.6721611721611722
257,1.6697435897435897
258,1.6721611721611722
259,1.6729670329670328
260,1.6745787545787545
261,1.6778021978021977
262,1.6794139194139193
263,1.6874725274725275
264,1.6931135531135528
265,1.6995604395604396
266,1.705201465201465
267,1.7084249084249084
268,1.7140659340659339
269,1.718095238095238
270,1.7205128205128206
271,1.7293772893772892
272,1.7285714285714286
273,1.73018315018315
274,1.7326007326007327
275,1.730989010989011
276,1.730989010989011
277,1.7293772893772892
278,1.7277655677655677
279,1.7237362637362637
280,1.7197069597069596
281,1.718095238095238
282,1.709230769230769
283,1.7076190476190476
284,1.7019780219780218
285,1.6995604395604396
286,1.6979487179487178
287,1.6955311355311355
288,1.6890842490842488
289,1.6898901098901098
290,1.6906959706959706
291,1.6931135531135528
292,1.6890842490842488
293,1.6955311355311355
294,1.6939194139194138
295,1.6987545787545786
296,1.701172161172161
297,1.705201465201465
298,1.7076190476190476
299,1.7116483516483516
300,1.7197069597069596
301,1.7245421245421246
302,1.7253479853479852
303,1.7326007326007327
304,1.7342124542124542
305,1.7398534798534797
306,1.743076923076923
307,1.7406593406593407
308,1.743882783882784
309,1.7463003663003662
310,1.7382417582417582
311,1.7358241758241757
312,1.7342124542124542
313,1.7342124542124542
314,1.7285714285714286
315,1.7237362637362637
316,1.7172893772893771
317,1.7108424908424908
318,1.709230769230769
319,1.709230769230769
320,1.6979487179487178
321,1.6963369963369963
322,1.6906959706959706
323,1.6874725274725275
324,1.6874725274725275
325,1.6931135531135528
326,1.6826373626373625
327,1.6874725274725275
328,1.6882783882783883
329,1.6882783882783883
330,1.6915018315018315
331,1.6923076923076923
332,1.7019780219780218
333,1.697142857142857
334,1.6995604395604396
335,1.7068131868131868
336,1.7084249084249084
337,1.7116483516483516
338,1.7100366300366299
339,1.7172893772893771
340,1.7156776556776556
341,1.718095238095238
342,1.7205128205128206
343,1.7148717948717949
344,1.7148717948717949
345,1.7164835164835164
346,1.7084249084249084
347,1.7068131868131868
348,1.705201465201465
349,1.7003663003663003
350,1.7043956043956043
351,1.7043956043956043
352,1.7035897435897436
353,1.7003663003663003
354,1.7060073260073259
355,1.7076190476190476
356,1.7076190476190476
357,1.7084249084249084
358,1.7148717948717949
359,1.7205128205128206
360,1.7189010989010989
361,1.7213186813186812
362,1.726153846153846
363,1.7342124542124542
364,1.7358241758241757
365,1.7422710622710622
366,1.747912087912088
367,1.7487179487179487
368,1.7487179487179487
369,1.7575824175824175
370,1.7575824175824175
371,1.7575824175824175
372,1.7575824175824175
373,1.7664468864468863
374,1.763223443223443
375,1.7648351648351648
376,1.7656410256410255
377,1.7656410256410255
378,1.7656410256410255
379,1.7664468864468863
380,1.764029304029304
381,1.76
382,1.7616117216117215
383,1.7616117216117215
384,1.7567765567765568
385,1.7583882783882783
386,1.7535531135531133
387,1.7463003663003662
388,1.7454945054945052
389,1.7398534798534797
390,1.7358241758241757
391,1.7358241758241757
392,1.7317948717948717
393,1.7213186813186812
394,1.7172893772893771
395,1.7358241758241757
396,1.7285714285714286
397,1.7277655677655677
398,1.7342124542124542
399,1.7277655677655677
400,1.7245421245421246
401,1.726959706959707
402,1.7293772893772892
403,1.730989010989011
404,1.7366300366300367
405,1.7334065934065932
406,1.7326007326007327
407,1.730989010989011
408,1.7358241758241757
409,1.7374358974358972
410,1.7334065934065932
411,1.730989010989011
412,1.7334065934065932
413,1.7334065934065932
414,1.7285714285714286
415,1.7245421245421246
416,1.722124542124542
417,1.722930402930403
418,1.7140659340659339
419,1.7108424908424908
420,1.7116483516483516
421,1.7100366300366299
422,1.7084249084249084
423,1.7068131868131868
424,1.7035897435897436
425,1.7060073260073259
426,1.7076190476190476
427,1.7116483516483516
428,1.7132600732600731
429,1.7164835164835164
430,1.722930402930403
431,1.7245421245421246
432,1.7285714285714286
433,1.7277655677655677
434,1.7326007326007327
435,1.726959706959707
436,1.7366300366300367
437,1.743882783882784
438,1.743882783882784
439,1.743882783882784
440,1.743076923076923
441,1.7366300366300367
442,1.7406593406593407
443,1.73018315018315
444,1.7326007326007327
445,1.730989010989011
446,1.7245421245421246
447,1.7124542124542124
448,1.7116483516483516
449,1.709230769230769
450,1.6995604395604396
451,1.6939194139194138
452,1.6939194139194138
453,1.6915018315018315
454,1.6818315018315018
455,1.6786080586080585
456,1.6761904761904762
457,1.6761904761904762
458,1.6753846153846153
459,1.6802197802197802
460,1.6761904761904762
461,1.6826373626373625
462,1.6906959706959706
463,1.6923076923076923
464,1.6963369963369963
465,1.7060073260073259
466,1.709230769230769
467,1.718095238095238
468,1.7213186813186812
469,1.7213186813186812
470,1.7213186813186812
471,1.7277655677655677
472,1.7245421245421246
473,1.726959706959707
474,1.7326007326007327
475,1.7293772893772892
476,1.7253479853479852
477,1.726959706959707
478,1.7253479853479852
479,1.722124542124542
480,1.7197069597069596
481,1.718095238095238
482,1.7205128205128206
483,1.7148717948717949
484,1.7164835164835164
485,1.7156776556776556
486,1.7100366300366299
487,1.7140659340659339
488,1.7164835164835164
489,1.7197069597069596
490,1.7140659340659339
491,1.7140659340659339
492,1.718095238095238
493,1.7205128205128206
494,1.7205128205128206
495,1.7237362637362637
496,1.7334065934065932
497,1.7326007326007327
498,1.726959706959707
499,1.7358241758241757
500,1.7366300366300367
501,1.743882783882784
502,1.743882783882784
503,1.747912087912088
504,1.7463003663003662
505,1.747106227106227
506,1.747912087912088
507,1.747912087912088
508,1.7446886446886447
509,1.7422710622710622
510,1.7422710622710622
511,1.7358241758241757
512,1.7277655677655677
513,1.7293772893772892
514,1.7245421245421246
515,1.7213186813186812
516,1.7197069597069596
517,1.7164835164835164
518,1.7140659340659339
519,1.7108424908424908
520,1.7043956043956043
521,1.7084249084249084
522,1.7003663003663003
523,1.6939194139194138
524,1.701172161172161
525,1.6939194139194138
526,1.6995604395604396
527,1.7019780219780218
528,1.7003663003663003
529,1.7068131868131868
530,1.709230769230769
531,1.7116483516483516
532,1.7156776556776556
533,1.722124542124542
534,1.7237362637362637
535,1.730989010989011
536,1.735018315018315
537,1.735018315018315
538,1.7422710622710622
539,1.747106227106227
540,1.7398534798534797
541,1.747106227106227
542,1.7422710622710622
543,1.743076923076923
544,1.743882783882784
545,1.7406593406593407
546,1.7374358974358972
547,1.730989010989011
548,1.718095238095238
549,1.7317948717948717
550,1.73018315018315
551,1.7277655677655677
552,1.722930402930403
553,1.7197069597069596
554,1.7156776556776556
555,1.7172893772893771
556,1.7132600732600731
557,1.7116483516483516
558,1.705201465201465
559,1.7060073260073259
560,1.7100366300366299
561,1.7084249084249084
562,1.7043956043956043
563,1.7164835164835164
564,1.7124542124542124
565,1.7164835164835164
566,1.7237362637362637
567,1.722930402930403
568,1.7205128205128206
569,1.7253479853479852
570,1.7285714285714286
571,1.7277655677655677
572,1.73018315018315
573,1.7245421245421246
574,1.7245421245421246
575,1.722930402930403
576,1.739047619047619
577,1.7156776556776556
578,1.7148717948717949
579,1.7164835164835164
580,1.7116483516483516
581,1.7100366300366299
582,1.7100366300366299
583,1.7060073260073259
584,1.7019780219780218
585,1.705201465201465
586,1.7035897435897436
587,1.7035897435897436
588,1.7068131868131868
589,1.7108424908424908
590,1.7132600732600731
591,1.7100366300366299
592,1.7205128205128206
593,1.7189010989010989
594,1.722930402930403
595,1.7277655677655677
596,1.730989010989011
597,1.73018315018315
598,1.730989010989011
599,1.7326007326007327
600,1.7326007326007327
601,1.7326007326007327
602,1.735018315018315
603,1.7342124542124542
604,1.7422710622710622
605,1.7414652014652012
606,1.7382417582417582
607,1.7366300366300367
608,1.7317948717948717
609,1.7342124542124542
610,1.73018315018315
611,1.730989010989011
612,1.726959706959707
613,1.722124542124542
614,1.7237362637362637
615,1.722930402930403
616,1.7213186813186812
617,1.7237362637362637
618,1.718095238095238
619,1.7189010989010989
620,1.7164835164835164
621,1.722124542124542
622,1.7245421245421246
623,1.7068131868131868
624,1.726153846153846
625,1.7317948717948717
626,1.73018315018315
627,1.7342124542124542
628,1.7358241758241757
629,1.7245421245421246
630,1.7414652014652012
631,1.743076923076923
632,1.7358241758241757
633,1.747106227106227
634,1.7487179487179487
635,1.7463003663003662
636,1.7503296703296702
637,1.755970695970696
638,1.755970695970696
639,1.7535531135531133
640,1.751941391941392
641,1.7543589743589743
642,1.7503296703296702
643,1.7495238095238093
644,1.7422710622710622
645,1.7414652014652012
646,1.7382417582417582
647,1.7334065934065932
648,1.730989010989011
649,1.7293772893772892
650,1.7213186813186812
651,1.7197069597069596
652,1.7100366300366299
653,1.7108424908424908
654,1.7116483516483516
655,1.7019780219780218
656,1.7116483516483516
657,1.7124542124542124
658,1.7189010989010989
659,1.7164835164835164
660,1.7205128205128206
661,1.7245421245421246
662,1.718095238095238
663,1.7293772893772892
664,1.739047619047619
665,1.7398534798534797
666,1.7495238095238093
667,1.7503296703296702
668,1.7487179487179487
669,1.7575824175824175
670,1.7543589743589743
671,1.7608058608058608
672,1.759194139194139
673,1.7575824175824175
674,1.7575824175824175
675,1.7503296703296702
676,1.751135531135531
677,1.751941391941392
678,1.747106227106227
679,1.7414652014652012
680,1.7358241758241757
681,1.7317948717948717
682,1.7213186813186812
683,1.7205128205128206
684,1.7140659340659339
685,1.7116483516483516
686,1.705201465201465
687,1.7027838827838826
688,1.7019780219780218
689,1.6995604395604396
690,1.6979487179487178
691,1.7003663003663003
692,1.6995604395604396
693,1.7027838827838826
694,1.7084249084249084
695,1.7100366300366299
696,1.7156776556776556
697,1.7253479853479852
698,1.7277655677655677
699,1.73018315018315
700,1.7406593406593407
701,1.743882783882784
702,1.7503296703296702
703,1.7583882783882783
704,1.759194139194139
705,1.7575824175824175
706,1.767252747252747
707,1.7624175824175823
708,1.7583882783882783
709,1.764029304029304
710,1.768058608058608
711,1.76
712,1.7648351648351648
713,1.7487179487179487
714,1.751941391941392
715,1.7527472527472527
716,1.7454945054945052
717,1.7446886446886447
718,1.7374358974358972
719,1.7382417582417582
720,1.73018315018315
721,1.7334065934065932
722,1.73018315018315
723,1.73018315018315
724,1.7245421245421246
725,1.7285714285714286
726,1.7277655677655677
727,1.722124542124542
728,1.730989010989011
729,1.730989010989011
730,1.7317948717948717
731,1.7326007326007327
732,1.7374358974358972
733,1.7406593406593407
734,1.739047619047619
735,1.743882783882784
736,1.7398534798534797
737,1.739047619047619
738,1.7374358974358972
739,1.7358241758241757
740,1.735018315018315
741,1.7342124542124542
742,1.7326007326007327
743,1.7293772893772892
744,1.73018315018315
745,1.7237362637362637
746,1.7317948717948717
747,1.7245421245421246
748,1.7253479853479852
749,1.726959706959707
750,1.7285714285714286
751,1.730989010989011
752,1.7326007326007327
753,1.7326007326007327
754,1.73018315018315
755,1.7293772893772892
756,1.7334065934065932
757,1.735018315018315
758,1.7317948717948717
759,1.7358241758241757
760,1.7422710622710622
761,1.7454945054945052
762,1.743076923076923
763,1.7503296703296702
764,1.751135531135531
765,1.755164835164835
766,1.7575824175824175
767,1.76
768,1.755164835164835
769,1.763223443223443
770,1.7543589743589743
771,1.7575824175824175
772,1.7535531135531133
773,1.755164835164835
774,1.7575824175824175
775,1.7446886446886447
776,1.747106227106227
777,1.7487179487179487
778,1.7366300366300367
779,1.7398534798534797
780,1.73018315018315
781,1.7253479853479852
782,1.722930402930403
783,1.7189010989010989
784,1.7205128205128206
785,1.7132600732600731
786,1.709230769230769
787,1.7100366300366299
788,1.7043956043956043
789,1.7068131868131868
790,1.7027838827838826
791,1.7084249084249084
792,1.705201465201465
793,1.7100366300366299
794,1.7084249084249084
795,1.709230769230769
796,1.7116483516483516
797,1.718095238095238
798,1.7197069597069596
799,1.7237362637362637
800,1.722930402930403
801,1.7293772893772892
802,1.726153846153846
803,1.726153846153846
804,1.730989010989011
805,1.7334065934065932
806,1.73018315018315
807,1.730989010989011
808,1.7326007326007327
809,1.7293772893772892
810,1.7245421245421246
811,1.7277655677655677
812,1.7189010989010989
813,1.722930402930403
814,1.7156776556776556
815,1.7197069597069596
816,1.7100366300366299
817,1.7197069597069596
818,1.7116483516483516
819,1.7035897435897436
820,1.7043956043956043
821,1.7068131868131868
822,1.7043956043956043
823,1.7084249084249084
824,1.7076190476190476
825,1.7148717948717949
826,1.7124542124542124
827,1.7172893772893771
828,1.7189010989010989
829,1.7237362637362637
830,1.7317948717948717
831,1.730989010989011
832,1.7334065934065932
833,1.7374358974358972
834,1.739047619047619
835,1.7406593406593407
836,1.7454945054945052
837,1.7487179487179487
838,1.7454945054945052
839,1.7463003663003662
840,1.747106227106227
841,1.747912087912088
842,1.7446886446886447
843,1.7454945054945052
844,1.739047619047619
845,1.7358241758241757
846,1.7317948717948717
847,1.7326007326007327
848,1.726153846153846
849,1.7197069597069596
850,1.7172893772893771
851,1.7116483516483516
852,1.7084249084249084
853,1.7140659340659339
854,1.7043956043956043
855,1.705201465201465
856,1.6995604395604396
857,1.7019780219780218
858,1.7076190476190476
859,1.7100366300366299
860,1.7019780219780218
861,1.7116483516483516
862,1.718095238095238
863,1.722124542124542
864,1.722124542124542
865,1.7293772893772892
866,1.7342124542124542
867,1.735018315018315
868,1.7454945054945052
869,1.7422710622710622
870,1.7446886446886447
871,1.7487179487179487
872,1.751135531135531
873,1.7495238095238093
874,1.7543589743589743
875,1.755164835164835
876,1.751941391941392
877,1.7567765567765568
878,1.7487179487179487
879,1.7495238095238093
880,1.7487179487179487
881,1.7495238095238093
882,1.7414652014652012
883,1.7446886446886447
884,1.743882783882784
885,1.7414652014652012
886,1.7422710622710622
887,1.743882783882784
888,1.7406593406593407
889,1.7398534798534797
890,1.7463003663003662
891,1.7454945054945052
892,1.7446886446886447
893,1.7463003663003662
894,1.7527472527472527
895,1.751135531135531
896,1.7495238095238093
897,1.7535531135531133
898,1.7543589743589743
899,1.7543589743589743
900,1.7543589743589743
901,1.7535531135531133
902,1.747912087912088
903,1.755164835164835
904,1.7487179487179487
905,1.751941391941392
906,1.751941391941392
907,1.751135531135531
908,1.7454945054945052
909,1.7358241758241757
910,1.7446886446886447
911,1.7398534798534797
912,1.7366300366300367
913,1.7406593406593407
914,1.7317948717948717
915,1.7334065934065932
916,1.73018315018315
917,1.7205128205128206
918,1.7140659340659339
919,1.7197069597069596
920,1.7164835164835164
921,1.7140659340659339
922,1.7116483516483516
923,1.7124542124542124
924,1.7124542124542124
925,1.7164835164835164
926,1.7172893772893771
927,1.718095238095238
928,1.722930402930403
929,1.7237362637362637
930,1.73018315018315
931,1.7366300366300367
932,1.7406593406593407
933,1.743076923076923
934,1.747106227106227
935,1.7583882783882783
936,1.759194139194139
937,1.7648351648351648
938,1.7696703296703296
939,1.7728937728937728
940,1.7704761904761903
941,1.7712820512820513
942,1.7688644688644688
943,1.767252747252747
944,1.7656410256410255
945,1.7624175824175823
946,1.7503296703296702
947,1.755164835164835
948,1.7487179487179487
949,1.743882783882784
950,1.7406593406593407
951,1.739047619047619
952,1.7293772893772892
953,1.726959706959707
954,1.7245421245421246
955,1.7237362637362637
956,1.7156776556776556
957,1.722124542124542
958,1.7213186813186812
959,1.7245421245421246
960,1.722930402930403
961,1.7334065934065932
962,1.730989010989011
963,1.7374358974358972
964,1.7382417582417582
965,1.743882783882784
966,1.7503296703296702
967,1.76
968,1.76
969,1.7616117216117215
970,1.7624175824175823
971,1.7712820512820513
972,1.767252747252747
973,1.7712820512820513
974,1.7704761904761903
975,1.7664468864468863
976,1.7656410256410255
977,1.7664468864468863
978,1.7567765567765568
979,1.7567765567765568
980,1.751135531135531
981,1.743076923076923
982,1.7454945054945052
983,1.7398534798534797
984,1.7317948717948717
985,1.73018315018315
986,1.726153846153846
987,1.7237362637362637
988,1.722930402930403
989,1.722930402930403
990,1.7213186813186812
991,1.718095238095238
992,1.7277655677655677
993,1.7277655677655677
994,1.730989010989011
995,1.7382417582417582
996,1.7398534798534797
997,1.7712820512820513
998,1.747912087912088
999,1.751941391941392
1000,1.755970695970696
1001,1.7575824175824175
1002,1.7624175824175823
1003,1.7664468864468863
1004,1.768058608058608
1005,1.7745054945054943
1006,1.767252747252747
1007,1.7736996336996336
1008,1.7608058608058608
1009,1.7704761904761903
1010,1.7704761904761903
1011,1.7712820512820513
1012,1.767252747252747
1013,1.7648351648351648
1014,1.7616117216117215
1015,1.763223443223443
1016,1.7583882783882783
1017,1.7535531135531133
1018,1.747106227106227
1019,1.7495238095238093
1020,1.7487179487179487
1021,1.7527472527472527
1022,1.7487179487179487
1023,1.7446886446886447
1024,1.7535531135531133
1025,1.7454945054945052
1026,1.751941391941392
1027,1.7583882783882783
1028,1.7608058608058608
1029,1.7608058608058608
1030,1.76
1031,1.7688644688644688
1032,1.7696703296703296
1033,1.7745054945054943
1034,1.7769230769230768
1035,1.776117216117216
1036,1.78014652014652
1037,1.7857875457875456
1038,1.7857875457875456
1039,1.7914285714285714
1040,1.7938461538461536
1041,1.7898168498168496
1042,1.7857875457875456
1043,1.784981684981685
1044,1.7769230769230768
1045,1.7728937728937728
1046,1.7712820512820513
1047,1.767252747252747
1048,1.759194139194139
1049,1.7575824175824175
1050,1.747912087912088
1051,1.743882783882784
1052,1.7382417582417582
1053,1.739047619047619
1054,1.7342124542124542
1055,1.726959706959707
1056,1.7245421245421246
1057,1.7277655677655677
1058,1.726153846153846
1059,1.7285714285714286
1060,1.7253479853479852
1061,1.7317948717948717
1062,1.7326007326007327
1063,1.739047619047619
1064,1.7398534798534797
1065,1.743882783882784
1066,1.7503296703296702
1067,1.7535531135531133
1068,1.76
1069,1.763223443223443
1070,1.767252747252747
1071,1.7736996336996336
1072,1.7736996336996336
1073,1.7696703296703296
1074,1.7712820512820513
1075,1.7769230769230768
1076,1.7664468864468863
1077,1.793040293040293
1078,1.7664468864468863
1079,1.7583882783882783
1080,1.76
1081,1.76
1082,1.7503296703296702
1083,1.743882783882784
1084,1.7422710622710622
1085,1.743882783882784
1086,1.739047619047619
1087,1.739047619047619
1088,1.7253479853479852
1089,1.7366300366300367
1090,1.7422710622710622
1091,1.7422710622710622
1092,1.7382417582417582
1093,1.7422710622710622
1094,1.7446886446886447
1095,1.7414652014652012
1096,1.7503296703296702
1097,1.7567765567765568
1098,1.7608058608058608
1099,1.759194139194139
1100,1.767252747252747
1101,1.7712820512820513
1102,1.7688644688644688
1103,1.7745054945054943
1104,1.7753113553113553
1105,1.7712820512820513
1106,1.772087912087912
1107,1.7728937728937728
1108,1.7656410256410255
1109,1.7656410256410255
1110,1.7648351648351648
1111,1.7648351648351648
1112,1.7608058608058608
1113,1.755164835164835
1114,1.7503296703296702
1115,1.751941391941392
1116,1.751135531135531
1117,1.7495238095238093
1118,1.7422710622710622
1119,1.7487179487179487
1120,1.7446886446886447
1121,1.743882783882784
1122,1.7446886446886447
1123,1.747106227106227
1124,1.743076923076923
1125,1.7454945054945052
1126,1.7463003663003662
1127,1.7342124542124542
1128,1.751135531135531
1129,1.7527472527472527
1130,1.7575824175824175
1131,1.755164835164835
1132,1.7616117216117215
1133,1.7696703296703296
1134,1.767252747252747
1135,1.7745054945054943
1136,1.7728937728937728
1137,1.7833699633699633
1138,1.78014652014652
1139,1.768058608058608
1140,1.7833699633699633
1141,1.7865934065934064
1142,1.784175824175824
1143,1.78014652014652
1144,1.768058608058608
1145,1.7753113553113553
1146,1.772087912087912
1147,1.7728937728937728
1148,1.7688644688644688
1149,1.7624175824175823
1150,1.76
1151,1.7575824175824175
1152,1.7535531135531133
1153,1.7495238095238093
1154,1.747106227106227
1155,1.7487179487179487
1156,1.7414652014652012
1157,1.743076923076923
1158,1.743882783882784
1159,1.743882783882784
1160,1.743076923076923
1161,1.7454945054945052
1162,1.747106227106227
1163,1.747106227106227
1164,1.7503296703296702
1165,1.755164835164835
1166,1.7527472527472527
1167,1.7583882783882783
1168,1.7575824175824175
1169,1.7616117216117215
1170,1.755164835164835
1171,1.7535531135531133
1172,1.7583882783882783
1173,1.7575824175824175
1174,1.7543589743589743
1175,1.7495238095238093
1176,1.751135531135531
1177,1.7463003663003662
1178,1.7422710622710622
1179,1.743882783882784
1180,1.7398534798534797
1181,1.7398534798534797
1182,1.7334065934065932
1183,1.7342124542124542
1184,1.735018315018315
1185,1.7326007326007327
1186,1.7358241758241757
1187,1.7358241758241757
1188,1.7342124542124542
1189,1.7398534798534797
1190,1.7398534798534797
1191,1.7422710622710622
1192,1.7495238095238093
1193,1.755164835164835
1194,1.755970695970696
1195,1.7648351648351648
1196,1.768058608058608
1197,1.7712820512820513
1198,1.7809523809523808
1199,1.789010989010989
1200,1.7857875457875456
1201,1.7857875457875456
1202,1.7873992673992674
1203,1.784175824175824
1204,1.784175824175824
1205,1.7857875457875456
1206,1.7793406593406593
1207,1.7736996336996336
1208,1.7777289377289376
1209,1.7624175824175823
1210,1.7656410256410255
1211,1.7583882783882783
1212,1.755164835164835
1213,1.7463003663003662
1214,1.7414652014652012
1215,1.739047619047619
1216,1.7293772893772892
1217,1.7245421245421246
1218,1.7205128205128206
1219,1.7205128205128206
1220,1.7156776556776556
1221,1.7124542124542124
1222,1.709230769230769
1223,1.7140659340659339
1224,1.7140659340659339
1225,1.7156776556776556
1226,1.7140659340659339
1227,1.7253479853479852
1228,1.7245421245421246
1229,1.7253479853479852
1230,1.7366300366300367
1231,1.739047619047619
1232,1.7454945054945052
1233,1.7535531135531133
1234,1.755164835164835
1235,1.7648351648351648
1236,1.7704761904761903
1237,1.7785347985347983
1238,1.772087912087912
1239,1.7793406593406593
1240,1.7873992673992674
1241,1.7865934065934064
1242,1.7914285714285714
1243,1.789010989010989
1244,1.7865934065934064
1245,1.7809523809523808
1246,1.7753113553113553
1247,1.7753113553113553
1248,1.767252747252747
1249,1.7696703296703296
1250,1.7648351648351648
1251,1.7583882783882783
1252,1.7616117216117215
1253,1.7543589743589743
1254,1.7487179487179487
1255,1.751135531135531
1256,1.7446886446886447
1257,1.7446886446886447
1258,1.7253479853479852
1259,1.7454945054945052
1260,1.743882783882784
1261,1.7454945054945052
1262,1.7487179487179487
1263,1.743882783882784
1264,1.751941391941392
1265,1.7527472527472527
1266,1.755164835164835
1267,1.7583882783882783
1268,1.7648351648351648
1269,1.767252747252747
1270,1.7608058608058608
1271,1.7414652014652012
1272,1.764029304029304
1273,1.763223443223443
1274,1.7583882783882783
1275,1.7656410256410255
1276,1.7616117216117215
1277,1.76
1278,1.7567765567765568
1279,1.7527472527472527
1280,1.7487179487179487
1281,1.7495238095238093
1282,1.743882783882784
1283,1.7374358974358972
1284,1.7358241758241757
1285,1.7374358974358972
1286,1.7358241758241757
1287,1.7334065934065932
1288,1.7285714285714286
1289,1.7245421245421246
1290,1.7277655677655677
1291,1.73018315018315
1292,1.7317948717948717
1293,1.73018315018315
1294,1.7358241758241757
1295,1.739047619047619
1296,1.7366300366300367
1297,1.7487179487179487
1298,1.7543589743589743
1299,1.7535531135531133
1300,1.759194139194139
1301,1.7624175824175823
1302,1.7608058608058608
1303,1.763223443223443
1304,1.7696703296703296
1305,1.763223443223443
1306,1.7688644688644688
1307,1.7712820512820513
1308,1.7696703296703296
1309,1.7728937728937728
1310,1.763223443223443
1311,1.76
1312,1.7616117216117215
1313,1.7583882783882783
1314,1.751135531135531
1315,1.747912087912088
1316,1.751135531135531
1317,1.7487179487179487
1318,1.743882783882784
1319,1.7398534798534797
1320,1.726153846153846
1321,1.7398534798534797
1322,1.743882783882784
1323,1.743882783882784
1324,1.7454945054945052
1325,1.7454945054945052
1326,1.7495238095238093
1327,1.7567765567765568
1328,1.7567765567765568
1329,1.7543589743589743
1330,1.7583882783882783
1331,1.76
1332,1.763223443223443
1333,1.7688644688644688
1334,1.767252747252747
1335,1.768058608058608
1336,1.7688644688644688
1337,1.767252747252747
1338,1.7527472527472527
1339,1.7648351648351648
1340,1.7648351648351648
1341,1.763223443223443
1342,1.76
1343,1.759194139194139
1344,1.7567765567765568
1345,1.751941391941392
1346,1.743882783882784
1347,1.7414652014652012
1348,1.7454945054945052
1349,1.726153846153846
1350,1.7326007326007327
1351,1.7326007326007327
1352,1.7285714285714286
1353,1.7293772893772892
1354,1.7293772893772892
1355,1.7342124542124542
1356,1.7285714285714286
1357,1.7317948717948717
1358,1.735018315018315
1359,1.7398534798534797
1360,1.7382417582417582
1361,1.7414652014652012
1362,1.743076923076923
1363,1.747106227106227
1364,1.7535531135531133
1365,1.751135531135531
1366,1.7543589743589743
1367,1.7575824175824175
1368,1.76
1369,1.7648351648351648
1370,1.7656410256410255
1371,1.767252747252747
1372,1.767252747252747
1373,1.7688644688644688
1374,1.7583882783882783
1375,1.759194139194139
1376,1.7624175824175823
1377,1.759194139194139
1378,1.755970695970696
1379,1.7583882783882783
1380,1.7567765567765568
1381,1.7535531135531133
1382,1.7382417582417582
1383,1.7495238095238093
1384,1.743076923076923
1385,1.7463003663003662
1386,1.7326007326007327
1387,1.7366300366300367
1388,1.739047619047619
1389,1.7358241758241757
1390,1.735018315018315
1391,1.7374358974358972
1392,1.7374358974358972
1393,1.735018315018315
1394,1.7358241758241757
1395,1.7374358974358972
1396,1.743882783882784
1397,1.7463003663003662
1398,1.7503296703296702
1399,1.7535531135531133
1400,1.755970695970696
1401,1.755164835164835
1402,1.76
1403,1.7583882783882783
1404,1.76
1405,1.7624175824175823
1406,1.7616117216117215
1407,1.7616117216117215
1408,1.7624175824175823
1409,1.7583882783882783
1410,1.7608058608058608
1411,1.755164835164835
1412,1.7567765567765568
1413,1.7487179487179487
1414,1.747106227106227
1415,1.7446886446886447
1416,1.7398534798534797
1417,1.739047619047619
1418,1.7358241758241757
1419,1.7342124542124542
1420,1.7382417582417582
1421,1.7382417582417582
1422,1.7358241758241757
1423,1.739047619047619
1424,1.7454945054945052
1425,1.7487179487179487
1426,1.747106227106227
1427,1.7503296703296702
1428,1.7575824175824175
1429,1.755164835164835
1430,1.7583882783882783
1431,1.7656410256410255
1432,1.768058608058608
1433,1.764029304029304
1434,1.7704761904761903
1435,1.7728937728937728
1436,1.7777289377289376
1437,1.776117216117216
1438,1.7769230769230768
1439,1.7688644688644688
1440,1.78014652014652
1441,1.7753113553113553
1442,1.7745054945054943
1443,1.7728937728937728
1444,1.764029304029304
1445,1.7608058608058608
1446,1.7575824175824175
1447,1.7535531135531133
1448,1.743076923076923
1449,1.7422710622710622
1450,1.735018315018315
1451,1.7277655677655677
1452,1.726153846153846
1453,1.722930402930403
1454,1.7205128205128206
1455,1.7140659340659339
1456,1.7156776556776556
1457,1.7197069597069596
1458,1.7124542124542124
1459,1.7164835164835164
1460,1.7108424908424908
1461,1.7172893772893771
1462,1.722930402930403
1463,1.730989010989011
1464,1.735018315018315
1465,1.747912087912088
1466,1.751941391941392
1467,1.7567765567765568
1468,1.768058608058608
1469,1.7753113553113553
1470,1.7736996336996336
1471,1.7825641025641024
1472,1.7898168498168496
1473,1.7857875457875456
1474,1.7873992673992674
1475,1.7873992673992674
1476,1.7833699633699633
1477,1.7833699633699633
1478,1.784175824175824
1479,1.7745054945054943
1480,1.7728937728937728
1481,1.7728937728937728
1482,1.7608058608058608
1483,1.7567765567765568
1484,1.7567765567765568
1485,1.7567765567765568
1486,1.7487179487179487
1487,1.751135531135531
1488,1.751941391941392
1489,1.747106227106227
1490,1.7414652014652012
1491,1.7487179487179487
1492,1.7334065934065932
1493,1.751135531135531
1494,1.743076923076923
1495,1.755164835164835
1496,1.7495238095238093
1497,1.7535531135531133
1498,1.76
1499,1.7624175824175823
1500,1.767252747252747
1501,1.7712820512820513
1502,1.7769230769230768
1503,1.7777289377289376
1504,1.78014652014652
1505,1.7793406593406593
1506,1.7825641025641024
1507,1.7753113553113553
1508,1.7736996336996336
1509,1.772087912087912
1510,1.7704761904761903
1511,1.7688644688644688
1512,1.7583882783882783
1513,1.76
1514,1.755164835164835
1515,1.7446886446886447
1516,1.7382417582417582
1517,1.7398534798534797
1518,1.735018315018315
1519,1.7326007326007327
1520,1.7277655677655677
1521,1.7293772893772892
1522,1.7285714285714286
1523,1.7293772893772892
1524,1.7285714285714286
1525,1.7285714285714286
1526,1.730989010989011
1527,1.7358241758241757
1528,1.739047619047619
1529,1.739047619047619
1530,1.743076923076923
1531,1.7487179487179487
1532,1.755164835164835
1533,1.763223443223443
1534,1.763223443223443
1535,1.7664468864468863
1536,1.7688644688644688
1537,1.7728937728937728
1538,1.776117216117216
1539,1.768058608058608
1540,1.7728937728937728
1541,1.7736996336996336
1542,1.7793406593406593
1543,1.7777289377289376
1544,1.772087912087912
1545,1.7712820512820513
1546,1.768058608058608
1547,1.7664468864468863
1548,1.7608058608058608
1549,1.755164835164835
1550,1.7535531135531133
1551,1.7495238095238093
1552,1.743076923076923
1553,1.7414652014652012
1554,1.7398534798534797
1555,1.739047619047619
1556,1.730989010989011
1557,1.7342124542124542
1558,1.7326007326007327
1559,1.730989010989011
1560,1.7317948717948717
1561,1.7358241758241757
1562,1.7366300366300367
1563,1.7366300366300367
1564,1.743882783882784
1565,1.743882783882784
1566,1.7487179487179487
1567,1.7543589743589743
1568,1.7503296703296702
1569,1.755164835164835
1570,1.7454945054945052
1571,1.7616117216117215
1572,1.7567765567765568
1573,1.759194139194139
1574,1.76
1575,1.76
1576,1.7575824175824175
1577,1.763223443223443
1578,1.7567765567765568
1579,1.755970695970696
1580,1.7567765567765568
1581,1.755970695970696
1582,1.7608058608058608
1583,1.76
1584,1.7567765567765568
1585,1.7608058608058608
1586,1.7583882783882783
1587,1.7583882783882783
1588,1.76
1589,1.7608058608058608
1590,1.7616117216117215
1591,1.7567765567765568
1592,1.7648351648351648
1593,1.768058608058608
1594,1.768058608058608
1595,1.7769230769230768
1596,1.7785347985347983
1597,1.7873992673992674
1598,1.7825641025641024
1599,1.7898168498168496
1600,1.7898168498168496
1601,1.7978754578754577
1602,1.793040293040293
1603,1.7938461538461536
1604,1.7954578754578754
1605,1.7946520146520146
1606,1.7962637362637361
1607,1.7970695970695971
1608,1.7922344322344321
1609,1.7922344322344321
1610,1.7817582417582416
1611,1.7825641025641024
1612,1.772087912087912
1613,1.7656410256410255
1614,1.7535531135531133
1615,1.755164835164835
1616,1.7463003663003662
1617,1.7366300366300367
1618,1.739047619047619
1619,1.7326007326007327
1620,1.7317948717948717
1621,1.726959706959707
1622,1.7245421245421246
1623,1.726153846153846
1624,1.7237362637362637
1625,1.7326007326007327
1626,1.7342124542124542
1627,1.7382417582417582
1628,1.7406593406593407
1629,1.743882783882784
1630,1.7503296703296702
1631,1.7575824175824175
1632,1.7583882783882783
1633,1.7648351648351648
1634,1.7728937728937728
1635,1.7696703296703296
1636,1.7769230769230768
1637,1.7777289377289376
1638,1.776117216117216
1639,1.7745054945054943
1640,1.763223443223443
1641,1.7785347985347983
1642,1.7777289377289376
1643,1.772087912087912
1644,1.7664468864468863
1645,1.76
1646,1.7567765567765568
1647,1.7567765567765568
1648,1.751135531135531
1649,1.747912087912088
1650,1.743076923076923
1651,1.7374358974358972
1652,1.735018315018315
1653,1.7334065934065932
1654,1.7277655677655677
1655,1.722930402930403
1656,1.7245421245421246
1657,1.722124542124542
1658,1.7189010989010989
1659,1.7213186813186812
1660,1.722124542124542
1661,1.7245421245421246
1662,1.7326007326007327
1663,1.7293772893772892
1664,1.73018315018315
1665,1.7342124542124542
1666,1.7382417582417582
1667,1.7398534798534797
1668,1.7446886446886447
1669,1.7503296703296702
1670,1.7454945054945052
1671,1.747106227106227
1672,1.7527472527472527
1673,1.7527472527472527
1674,1.7382417582417582
1675,1.7495238095238093
1676,1.7454945054945052
1677,1.7398534798534797
1678,1.7382417582417582
1679,1.7342124542124542
1680,1.7334065934065932
1681,1.7317948717948717
1682,1.7277655677655677
1683,1.7205128205128206
1684,1.7213186813186812
1685,1.7043956043956043
1686,1.6923076923076923
1687,1.7116483516483516
1688,1.709230769230769
1689,1.7043956043956043
1690,1.709230769230769
1691,1.7148717948717949
1692,1.7124542124542124
1693,1.7140659340659339
1694,1.7164835164835164
1695,1.7245421245421246
1696,1.726153846153846
1697,1.7317948717948717
1698,1.7374358974358972
1699,1.7446886446886447
1700,1.7463003663003662
1701,1.7575824175824175
1702,1.7575824175824175
1703,1.7616117216117215
1704,1.7648351648351648
1705,1.7648351648351648
1706,1.764029304029304
1707,1.7712820512820513
1708,1.7704761904761903
1709,1.7688644688644688
1710,1.7664468864468863
1711,1.7656410256410255
1712,1.7664468864468863
1713,1.7616117216117215
1714,1.7575824175824175
1715,1.7688644688644688
1716,1.7487179487179487
1717,1.7503296703296702
1718,1.7406593406593407
1719,1.730989010989011
1720,1.739047619047619
1721,1.7358241758241757
1722,1.7334065934065932
1723,1.7374358974358972
1724,1.7334065934065932
1725,1.7334065934065932
1726,1.7237362637362637
1727,1.7398534798534797
1728,1.7422710622710622
1729,1.7463003663003662
1730,1.7454945054945052
1731,1.7487179487179487
1732,1.7535531135531133
1733,1.7583882783882783
1734,1.763223443223443
1735,1.7648351648351648
1736,1.7648351648351648
1737,1.7656410256410255
1738,1.7688644688644688
1739,1.7696703296703296
1740,1.7656410256410255
1741,1.7648351648351648
1742,1.76
1743,1.755970695970696
1744,1.7487179487179487
1745,1.7446886446886447
1746,1.735018315018315
1747,1.7342124542124542
1748,1.730989010989011
1749,1.7277655677655677
1750,1.718095238095238
1751,1.7164835164835164
1752,1.7140659340659339
1753,1.7132600732600731
1754,1.7132600732600731
1755,1.7164835164835164
1756,1.7172893772893771
1757,1.7213186813186812
1758,1.726153846153846
1759,1.7317948717948717
1760,1.7374358974358972
1761,1.7398534798534797
1762,1.7503296703296702
1763,1.76
1764,1.7624175824175823
1765,1.7696703296703296
1766,1.7728937728937728
1767,1.7809523809523808
1768,1.78014652014652
1769,1.7785347985347983
1770,1.7817582417582416
1771,1.7825641025641024
1772,1.7785347985347983
1773,1.7809523809523808
1774,1.772087912087912
1775,1.7769230769230768
1776,1.772087912087912
1777,1.764029304029304
1778,1.7608058608058608
1779,1.7543589743589743
1780,1.751941391941392
1781,1.7454945054945052
1782,1.7382417582417582
1783,1.7398534798534797
1784,1.735018315018315
1785,1.7342124542124542
1786,1.73018315018315
1787,1.7285714285714286
1788,1.7317948717948717
1789,1.7342124542124542
1790,1.7293772893772892
1791,1.7326007326007327
1792,1.735018315018315
1793,1.7366300366300367
1794,1.7446886446886447
1795,1.7487179487179487
1796,1.7535531135531133
1797,1.7583882783882783
1798,1.763223443223443
1799,1.7712820512820513
1800,1.7712820512820513
1801,1.78014652014652
1802,1.784175824175824
1803,1.789010989010989
1804,1.784175824175824
1805,1.784981684981685
1806,1.784981684981685
1807,1.784981684981685
1808,1.78014652014652
1809,1.7809523809523808
1810,1.7736996336996336
1811,1.7656410256410255
1812,1.7583882783882783
1813,1.7535531135531133
1814,1.7487179487179487
1815,1.7422710622710622
1816,1.735018315018315
1817,1.730989010989011
1818,1.726959706959707
1819,1.7253479853479852
1820,1.726959706959707
1821,1.726153846153846
1822,1.7237362637362637
1823,1.726959706959707
1824,1.7334065934065932
1825,1.7374358974358972
1826,1.7398534798534797
1827,1.7575824175824175
1828,1.7583882783882783
1829,1.7648351648351648
1830,1.7704761904761903
1831,1.7817582417582416
1832,1.7873992673992674
1833,1.793040293040293
1834,1.7954578754578754
1835,1.7986813186813186
1836,1.7970695970695971
1837,1.7906227106227104
1838,1.7938461538461536
1839,1.7954578754578754
1840,1.7873992673992674
1841,1.7857875457875456
1842,1.7809523809523808
1843,1.776117216117216
1844,1.7696703296703296
1845,1.7624175824175823
1846,1.76
1847,1.751941391941392
1848,1.743882783882784
1849,1.7406593406593407
1850,1.7285714285714286
1851,1.7253479853479852
1852,1.722930402930403
1853,1.7035897435897436
1854,1.7124542124542124
1855,1.7100366300366299
1856,1.7108424908424908
1857,1.7084249084249084
1858,1.7108424908424908
1859,1.7148717948717949
1860,1.7148717948717949
1861,1.718095238095238
1862,1.7197069597069596
1863,1.7277655677655677
1864,1.7366300366300367
1865,1.7398534798534797
1866,1.7543589743589743
1867,1.7583882783882783
1868,1.763223443223443
1869,1.772087912087912
1870,1.7769230769230768
1871,1.7793406593406593
1872,1.7769230769230768
1873,1.7777289377289376
1874,1.7793406593406593
1875,1.78014652014652
1876,1.7769230769230768
1877,1.7745054945054943
1878,1.7728937728937728
1879,1.755970695970696
1880,1.763223443223443
1881,1.755164835164835
1882,1.7487179487179487
1883,1.7463003663003662
1884,1.7414652014652012
1885,1.7358241758241757
1886,1.730989010989011
1887,1.730989010989011
1888,1.7148717948717949
1889,1.7293772893772892
1890,1.7293772893772892
1891,1.726959706959707
1892,1.726153846153846
1893,1.73018315018315
1894,1.7293772893772892
1895,1.7358241758241757
1896,1.7334065934065932
1897,1.7382417582417582
1898,1.7406593406593407
1899,1.739047619047619
1900,1.7503296703296702
1901,1.755164835164835
1902,1.7495238095238093
1903,1.7567765567765568
1904,1.7527472527472527
1905,1.7535531135531133
1906,1.755164835164835
1907,1.751941391941392
1908,1.7446886446886447
1909,1.7422710622710622
1910,1.7454945054945052
1911,1.7422710622710622
1912,1.730989010989011
1913,1.730989010989011
1914,1.7293772893772892
1915,1.7213186813186812
1916,1.722930402930403
1917,1.7213186813186812
1918,1.7189010989010989
1919,1.718095238095238
1920,1.7205128205128206
1921,1.7205128205128206
1922,1.7213186813186812
1923,1.7277655677655677
1924,1.7245421245421246
1925,1.7285714285714286
1926,1.7342124542124542
1927,1.7358241758241757
1928,1.7422710622710622
1929,1.7463003663003662
1930,1.747106227106227
1931,1.755970695970696
1932,1.764029304029304
1933,1.7664468864468863
1934,1.7656410256410255
1935,1.7688644688644688
1936,1.7736996336996336
1937,1.7696703296703296
1938,1.7753113553113553
1939,1.7769230769230768
1940,1.7736996336996336
1941,1.7785347985347983
1942,1.7736996336996336
1943,1.772087912087912
1944,1.767252747252747
1945,1.763223443223443
1946,1.7535531135531133
1947,1.751135531135531
1948,1.747912087912088
1949,1.739047619047619
1950,1.735018315018315
1951,1.735018315018315
1952,1.73018315018315
1953,1.7245421245421246
1954,1.726959706959707
1955,1.726959706959707
1956,1.726959706959707
1957,1.7237362637362637
1958,1.7326007326007327
1959,1.7334065934065932
1960,1.7358241758241757
1961,1.7406593406593407
1962,1.743882783882784
1963,1.7535531135531133
1964,1.759194139194139
1965,1.751135531135531
1966,1.764029304029304
1967,1.776117216117216
1968,1.7793406593406593
1969,1.7817582417582416
1970,1.7865934065934064
1971,1.7938461538461536
1972,1.789010989010989
1973,1.8010989010989011
1974,1.7938461538461536
1975,1.789010989010989
1976,1.7898168498168496
1977,1.7906227106227104
1978,1.7825641025641024
1979,1.7817582417582416
1980,1.7777289377289376
1981,1.772087912087912
1982,1.7704761904761903
1983,1.7624175824175823
1984,1.7535531135531133
1985,1.747912087912088
1986,1.7454945054945052
1987,1.7414652014652012
1988,1.7334065934065932
1989,1.7334065934065932
1990,1.7277655677655677
1991,1.726959706959707
1992,1.7253479853479852
1993,1.7237362637362637
1994,1.7197069597069596
1995,1.718095238095238
1996,1.7197069597069596
1997,1.722124542124542
1998,1.7197069597069596
1999,1.718095238095238
2000,1.7148717948717949
2001,1.718095238095238
2002,1.7172893772893771
2003,1.722124542124542
2004,1.722124542124542
2005,1.7277655677655677
2006,1.7285714285714286
2007,1.730989010989011
2008,1.7334065934065932
2009,1.73018315018315
2010,1.743882783882784
2011,1.743882783882784
2012,1.7495238095238093
2013,1.751941391941392
2014,1.755970695970696
2015,1.7616117216117215
2016,1.7567765567765568
2017,1.755164835164835
2018,1.7567765567765568
2019,1.755164835164835
2020,1.755164835164835
2021,1.7535531135531133
2022,1.747106227106227
2023,1.7454945054945052
2024,1.743076923076923
2025,1.7374358974358972
2026,1.7342124542124542
2027,1.730989010989011
2028,1.730989010989011
2029,1.726153846153846
2030,1.722124542124542
2031,1.718095238095238
2032,1.7116483516483516
2033,1.718095238095238
2034,1.7140659340659339
2035,1.7132600732600731
2036,1.7084249084249084
2037,1.7148717948717949
2038,1.7108424908424908
2039,1.7116483516483516
2040,1.7124542124542124
2041,1.7213186813186812
2042,1.7148717948717949
2043,1.7164835164835164
2044,1.7140659340659339
2045,1.7164835164835164
2046,1.7084249084249084
2047,1.7197069597069596
2048,1.7205128205128206
2049,1.7213186813186812
2050,1.718095238095238
2051,1.7124542124542124
2052,1.7076190476190476
2053,1.7132600732600731
2054,1.7197069597069596
2055,1.7156776556776556
2056,1.7100366300366299
2057,1.718095238095238
2058,1.7156776556776556
2059,1.7156776556776556
2060,1.718095238095238
2061,1.7189010989010989
2062,1.718095238095238
2063,1.7197069597069596
2064,1.722124542124542
2065,1.726153846153846
2066,1.726153846153846
2067,1.73018315018315
2068,1.7317948717948717
2069,1.7342124542124542
2070,1.7342124542124542
2071,1.7374358974358972
2072,1.7398534798534797
2073,1.7414652014652012
2074,1.7463003663003662
2075,1.7454945054945052
2076,1.747912087912088
2077,1.7487179487179487
2078,1.747912087912088
2079,1.743882783882784
2080,1.7503296703296702
2081,1.7446886446886447
2082,1.747912087912088
2083,1.7543589743589743
2084,1.7495238095238093
2085,1.7575824175824175
2086,1.7446886446886447
2087,1.747106227106227
2088,1.739047619047619
2089,1.735018315018315
2090,1.7366300366300367
2091,1.7366300366300367
2092,1.7317948717948717
2093,1.7285714285714286
2094,1.726153846153846
2095,1.722930402930403
2096,1.718095238095238
2097,1.7197069597069596
2098,1.718095238095238
2099,1.7197069597069596
2100,1.7140659340659339
2101,1.7140659340659339
2102,1.7116483516483516
2103,1.7116483516483516
2104,1.7164835164835164
2105,1.7148717948717949
2106,1.7100366300366299
2107,1.7148717948717949
2108,1.7156776556776556
2109,1.7100366300366299
2110,1.701172161172161
2111,1.7116483516483516
2112,1.7116483516483516
2113,1.7132600732600731
2114,1.718095238095238
2115,1.7140659340659339
2116,1.7197069597069596
2117,1.7213186813186812
2118,1.7172893772893771
2119,1.722930402930403
2120,1.7213186813186812
2121,1.7245421245421246
2122,1.7205128205128206
2123,1.718095238095238
2124,1.7172893772893771
2125,1.7197069597069596
2126,1.7213186813186812
2127,1.7237362637362637
2128,1.7213186813186812
2129,1.7245421245421246
2130,1.7237362637362637
2131,1.7277655677655677
2132,1.7253479853479852
2133,1.7237362637362637
2134,1.730989010989011
2135,1.7317948717948717
2136,1.7358241758241757
2137,1.7374358974358972
2138,1.7398534798534797
2139,1.739047619047619
2140,1.7374358974358972
2141,1.739047619047619
2142,1.7374358974358972
2143,1.7358241758241757
2144,1.7366300366300367
2145,1.7366300366300367
2146,1.7374358974358972
2147,1.7334065934065932
2148,1.7342124542124542
2149,1.7317948717948717
2150,1.7293772893772892
2151,1.730989010989011
2152,1.7245421245421246
2153,1.7213186813186812
2154,1.7197069597069596
2155,1.7197069597069596
2156,1.718095238095238
2157,1.7132600732600731
2158,1.7116483516483516
2159,1.7124542124542124
2160,1.7060073260073259
2161,1.709230769230769
2162,1.7043956043956043
2163,1.697142857142857
2164,1.7084249084249084
2165,1.7084249084249084
2166,1.7060073260073259
2167,1.7084249084249084
2168,1.7116483516483516
2169,1.7108424908424908
2170,1.7172893772893771
2171,1.7189010989010989
2172,1.7156776556776556
2173,1.7213186813186812
2174,1.7205128205128206
2175,1.7237362637362637
2176,1.7253479853479852
2177,1.7277655677655677
2178,1.726959706959707
2179,1.726959706959707
2180,1.7245421245421246
2181,1.7342124542124542
2182,1.7293772893772892
2183,1.7358241758241757
2184,1.7358241758241757
2185,1.7366300366300367
2186,1.7382417582417582
2187,1.7398534798534797
2188,1.7374358974358972
2189,1.7374358974358972
2190,1.7406593406593407
2191,1.739047619047619
2192,1.7277655677655677
2193,1.7422710622710622
2194,1.7422710622710622
2195,1.7398534798534797
2196,1.7398534798534797
2197,1.7422710622710622
2198,1.739047619047619
2199,1.7414652014652012
2200,1.739047619047619
2201,1.7334065934065932
2202,1.7374358974358972
2203,1.735018315018315
2204,1.7342124542124542
2205,1.7326007326007327
2206,1.735018315018315
2207,1.7317948717948717
2208,1.73018315018315
2209,1.7293772893772892
2210,1.7253479853479852
2211,1.7189010989010989
2212,1.718095238095238
2213,1.7197069597069596
2214,1.7172893772893771
2215,1.7197069597069596
2216,1.7189010989010989
2217,1.7164835164835164
2218,1.7172893772893771
2219,1.7172893772893771
2220,1.7334065934065932
2221,1.718095238095238
2222,1.718095238095238
2223,1.718095238095238
2224,1.7189010989010989
2225,1.7205128205128206
2226,1.7164835164835164
2227,1.7164835164835164
2228,1.7164835164835164
2229,1.722930402930403
2230,1.73018315018315
2231,1.7342124542124542
2232,1.7342124542124542
2233,1.7422710622710622
2234,1.7463003663003662
2235,1.751941391941392
2236,1.755164835164835
2237,1.7583882783882783
2238,1.7624175824175823
2239,1.7608058608058608
2240,1.7656410256410255
2241,1.768058608058608
2242,1.768058608058608
2243,1.7656410256410255
2244,1.767252747252747
2245,1.7608058608058608
2246,1.7535531135531133
2247,1.755970695970696
2248,1.747106227106227
2249,1.7487179487179487
2250,1.7414652014652012
2251,1.7374358974358972
2252,1.7342124542124542
2253,1.7277655677655677
2254,1.7205128205128206
2255,1.7140659340659339
2256,1.7132600732600731
2257,1.7124542124542124
2258,1.7084249084249084
2259,1.709230769230769
2260,1.6995604395604396
2261,1.7019780219780218
2262,1.701172161172161
2263,1.7043956043956043
2264,1.7060073260073259
2265,1.7068131868131868
2266,1.7116483516483516
2267,1.7164835164835164
2268,1.7164835164835164
2269,1.7197069597069596
2270,1.7156776556776556
2271,1.7253479853479852
2272,1.7285714285714286
2273,1.7334065934065932
2274,1.7326007326007327
2275,1.7358241758241757
2276,1.7414652014652012
2277,1.7422710622710622
2278,1.7406593406593407
2279,1.7398534798534797
2280,1.739047619047619
2281,1.739047619047619
2282,1.739047619047619
2283,1.7374358974358972
2284,1.7334065934065932
2285,1.7326007326007327
2286,1.7317948717948717
2287,1.7326007326007327
2288,1.722930402930403
2289,1.7293772893772892
2290,1.722124542124542
2291,1.726959706959707
2292,1.7245421245421246
2293,1.7237362637362637
2294,1.7189010989010989
2295,1.7237362637362637
2296,1.7197069597069596
2297,1.7156776556776556
2298,1.718095238095238
2299,1.718095238095238
2300,1.7140659340659339
2301,1.7205128205128206
2302,1.718095238095238
2303,1.718095238095238
2304,1.7189010989010989
2305,1.7213186813186812
2306,1.7245421245421246
2307,1.7245421245421246
2308,1.7253479853479852
2309,1.730989010989011
2310,1.7293772893772892
2311,1.730989010989011
2312,1.7326007326007327
2313,1.7366300366300367
2314,1.7366300366300367
2315,1.7414652014652012
2316,1.743076923076923
2317,1.7487179487179487
2318,1.7503296703296702
2319,1.7535531135531133
2320,1.755164835164835
2321,1.7567765567765568
2322,1.755970695970696
2323,1.759194139194139
2324,1.751941391941392
2325,1.7487179487179487
2326,1.7454945054945052
2327,1.7487179487179487
2328,1.743882783882784
2329,1.7454945054945052
2330,1.7454945054945052
2331,1.743076923076923
2332,1.7422710622710622
2333,1.743076923076923
2334,1.7358241758241757
2335,1.7334065934065932
2336,1.735018315018315
2337,1.7342124542124542
2338,1.730989010989011
2339,1.7293772893772892
2340,1.7237362637362637
2341,1.726959706959707
2342,1.7253479853479852
2343,1.726959706959707
2344,1.722930402930403
2345,1.7245421245421246
2346,1.722124542124542
2347,1.7205128205128206
2348,1.7189010989010989
2349,1.7189010989010989
2350,1.7156776556776556
2351,1.7140659340659339
2352,1.7172893772893771
2353,1.7164835164835164
2354,1.7124542124542124
2355,1.7172893772893771
2356,1.7140659340659339
2357,1.718095238095238
2358,1.7140659340659339
2359,1.7172893772893771
2360,1.722930402930403
2361,1.726153846153846
2362,1.7277655677655677
2363,1.7317948717948717
2364,1.7342124542124542
2365,1.7398534798534797
2366,1.743076923076923
2367,1.7454945054945052
2368,1.747912087912088
2369,1.7463003663003662
2370,1.747912087912088
2371,1.751135531135531
2372,1.751941391941392
2373,1.751941391941392
2374,1.751135531135531
2375,1.7535531135531133
2376,1.747912087912088
2377,1.7487179487179487
2378,1.739047619047619
2379,1.7398534798534797
2380,1.7342124542124542
2381,1.7317948717948717
2382,1.7172893772893771
2383,1.7237362637362637
2384,1.7205128205128206
2385,1.7156776556776556
2386,1.7116483516483516
2387,1.709230769230769
2388,1.6963369963369963
2389,1.7068131868131868
2390,1.7003663003663003
2391,1.6955311355311355
2392,1.7003663003663003
2393,1.7035897435897436
2394,1.6995604395604396
2395,1.7003663003663003
2396,1.7060073260073259
2397,1.7003663003663003
2398,1.697142857142857
2399,1.7043956043956043
2400,1.7019780219780218
2401,1.705201465201465
2402,1.7068131868131868
2403,1.7132600732600731
2404,1.7140659340659339
2405,1.7205128205128206
2406,1.722930402930403
2407,1.7334065934065932
2408,1.7366300366300367
2409,1.7422710622710622
2410,1.7422710622710622
2411,1.7422710622710622
2412,1.7495238095238093
2413,1.747912087912088
2414,1.751135531135531
2415,1.751941391941392
2416,1.7495238095238093
2417,1.7543589743589743
2418,1.755970695970696
2419,1.751135531135531
2420,1.7503296703296702
2421,1.7543589743589743
2422,1.7495238095238093
2423,1.7463003663003662
2424,1.7487179487179487
2425,1.7422710622710622
2426,1.7398534798534797
2427,1.7398534798534797
2428,1.7358241758241757
2429,1.7326007326007327
2430,1.7358241758241757
2431,1.7326007326007327
2432,1.7277655677655677
2433,1.7293772893772892
2434,1.730989010989011
2435,1.730989010989011
2436,1.7285714285714286
2437,1.7317948717948717
2438,1.7293772893772892
2439,1.7285714285714286
2440,1.7285714285714286
2441,1.7293772893772892
2442,1.7358241758241757
2443,1.739047619047619
2444,1.739047619047619
2445,1.7414652014652012
2446,1.7414652014652012
2447,1.7495238095238093
2448,1.743882783882784
2449,1.7503296703296702
2450,1.747912087912088
2451,1.7422710622710622
2452,1.7535531135531133
2453,1.747912087912088
2454,1.755164835164835
2455,1.7503296703296702
2456,1.751941391941392
2457,1.751135531135531
2458,1.7446886446886447
2459,1.743882783882784
2460,1.7487179487179487
2461,1.7374358974358972
2462,1.7374358974358972
2463,1.7398534798534797
2464,1.739047619047619
2465,1.7382417582417582
2466,1.730989010989011
2467,1.7334065934065932
2468,1.7285714285714286
2469,1.730989010989011
2470,1.7293772893772892
2471,1.7285714285714286
2472,1.7334065934065932
2473,1.7277655677655677
2474,1.726153846153846
2475,1.7245421245421246
2476,1.7293772893772892
2477,1.730989010989011
2478,1.730989010989011
2479,1.730989010989011
2480,1.73018315018315
2481,1.7317948717948717
2482,1.7326007326007327
2483,1.7326007326007327
2484,1.7326007326007327
2485,1.7326007326007327
2486,1.7285714285714286
2487,1.7317948717948717
2488,1.726153846153846
2489,1.7342124542124542
2490,1.7277655677655677
2491,1.730989010989011
2492,1.7334065934065932
2493,1.726959706959707
2494,1.7342124542124542
2495,1.73018315018315
2496,1.73018315018315
2497,1.7358241758241757
2498,1.730989010989011
2499,1.7334065934065932
2500,1.7358241758241757
2501,1.7374358974358972
2502,1.7374358974358972
2503,1.7342124542124542
2504,1.7406593406593407
2505,1.7374358974358972
2506,1.739047619047619
2507,1.7414652014652012
2508,1.739047619047619
2509,1.739047619047619
2510,1.7414652014652012
2511,1.7422710622710622
2512,1.7382417582417582
2513,1.7398534798534797
2514,1.7422710622710622
2515,1.7374358974358972
2516,1.7398534798534797
2517,1.7366300366300367
2518,1.7366300366300367
2519,1.7374358974358972
2520,1.7366300366300367
2521,1.7414652014652012
2522,1.7358241758241757
2523,1.735018315018315
2524,1.7382417582417582
2525,1.7374358974358972
2526,1.7406593406593407
2527,1.7422710622710622
2528,1.7398534798534797
2529,1.7414652014652012
2530,1.747912087912088
2531,1.747106227106227
2532,1.7495238095238093
2533,1.755164835164835
2534,1.7495238095238093
2535,1.751135531135531
2536,1.755164835164835
2537,1.755970695970696
2538,1.7583882783882783
2539,1.7575824175824175
2540,1.7543589743589743
2541,1.743076923076923
2542,1.755164835164835
2543,1.751135531135531
2544,1.755970695970696
2545,1.755164835164835
2546,1.751941391941392
2547,1.751941391941392
2548,1.7543589743589743
2549,1.751941391941392
2550,1.751135531135531
2551,1.7535531135531133
2552,1.7495238095238093
2553,1.7463003663003662
2554,1.7454945054945052
2555,1.743076923076923
2556,1.7382417582417582
2557,1.73018315018315
2558,1.7374358974358972
2559,1.7342124542124542
2560,1.7317948717948717
2561,1.7326007326007327
2562,1.7326007326007327
2563,1.7293772893772892
2564,1.7253479853479852
2565,1.7366300366300367
2566,1.7293772893772892
2567,1.726959706959707
2568,1.7293772893772892
2569,1.7293772893772892
2570,1.7358241758241757
2571,1.7334065934065932
2572,1.7317948717948717
2573,1.7382417582417582
2574,1.7366300366300367
2575,1.7398534798534797
2576,1.743076923076923
2577,1.7358241758241757
2578,1.7495238095238093
2579,1.751941391941392
2580,1.7567765567765568
2581,1.76
2582,1.7575824175824175
2583,1.768058608058608
2584,1.7696703296703296
2585,1.7656410256410255
2586,1.7688644688644688
2587,1.7696703296703296
2588,1.7648351648351648
2589,1.7608058608058608
2590,1.7608058608058608
2591,1.7575824175824175
2592,1.751135531135531
2593,1.7487179487179487
2594,1.7463003663003662
2595,1.743882783882784
2596,1.755164835164835
2597,1.743882783882784
2598,1.7374358974358972
2599,1.743882783882784
2600,1.7398534798534797
2601,1.7374358974358972
2602,1.7398534798534797
2603,1.747106227106227
2604,1.7398534798534797
2605,1.743076923076923
2606,1.743076923076923
2607,1.7446886446886447
2608,1.747106227106227
2609,1.7503296703296702
2610,1.747106227106227
2611,1.7487179487179487
2612,1.751941391941392
2613,1.7535531135531133
2614,1.7495238095238093
2615,1.7374358974358972
2616,1.747106227106227
2617,1.7446886446886447
2618,1.743076923076923
2619,1.7454945054945052
2620,1.743076923076923
2621,1.7317948717948717
2622,1.7358241758241757
2623,1.7326007326007327
2624,1.7293772893772892
2625,1.7317948717948717
2626,1.7285714285714286
2627,1.726153846153846
2628,1.722930402930403
2629,1.7277655677655677
2630,1.7277655677655677
2631,1.730989010989011
2632,1.7293772893772892
2633,1.7277655677655677
2634,1.7334065934065932
2635,1.7317948717948717
2636,1.73018315018315
2637,1.7317948717948717
2638,1.73018315018315
2639,1.7374358974358972
2640,1.7293772893772892
2641,1.7422710622710622
2642,1.726153846153846
2643,1.7463003663003662
2644,1.751941391941392
2645,1.7535531135531133
2646,1.755164835164835
2647,1.747106227106227
2648,1.7616117216117215
2649,1.7656410256410255
2650,1.763223443223443
2651,1.768058608058608
2652,1.7688644688644688
2653,1.7728937728937728
2654,1.7745054945054943
2655,1.7736996336996336
2656,1.772087912087912
2657,1.7769230769230768
2658,1.768058608058608
2659,1.7696703296703296
2660,1.7648351648351648
2661,1.763223443223443
2662,1.759194139194139
2663,1.755970695970696
2664,1.751941391941392
2665,1.7487179487179487
2666,1.7463003663003662
2667,1.7487179487179487
2668,1.743882783882784
2669,1.7317948717948717
2670,1.7358241758241757
2671,1.7326007326007327
2672,1.7334065934065932
2673,1.735018315018315
2674,1.730989010989011
2675,1.7285714285714286
2676,1.7342124542124542
2677,1.7358241758241757
2678,1.73018315018315
2679,1.7285714285714286
2680,1.7317948717948717
2681,1.735018315018315
2682,1.7366300366300367
2683,1.7382417582417582
2684,1.7358241758241757
2685,1.7382417582417582
2686,1.7374358974358972
2687,1.7334065934065932
2688,1.7374358974358972
2689,1.735018315018315
2690,1.7326007326007327
2691,1.7342124542124542
2692,1.7326007326007327
2693,1.7326007326007327
2694,1.7334065934065932
2695,1.730989010989011
2696,1.73018315018315
2697,1.7326007326007327
2698,1.7342124542124542
2699,1.7334065934065932
2700,1.7334065934065932
2701,1.7326007326007327
2702,1.7366300366300367
2703,1.7358241758241757
2704,1.7374358974358972
2705,1.7406593406593407
2706,1.7406593406593407
2707,1.7446886446886447
2708,1.7422710622710622
2709,1.7414652014652012
2710,1.7463003663003662
2711,1.747912087912088
2712,1.743076923076923
2713,1.747106227106227
2714,1.7487179487179487
2715,1.7358241758241757
2716,1.747912087912088
2717,1.747912087912088
2718,1.743882783882784
2719,1.7487179487179487
2720,1.747106227106227
2721,1.7463003663003662
2722,1.7414652014652012
2723,1.7446886446886447
2724,1.7422710622710622
2725,1.7382417582417582
2726,1.7374358974358972
2727,1.7342124542124542
2728,1.7334065934065932
2729,1.730989010989011
2730,1.730989010989011
2731,1.7293772893772892
2732,1.726153846153846
2733,1.7189010989010989
2734,1.7213186813186812
2735,1.7237362637362637
2736,1.7237362637362637
2737,1.722124542124542
2738,1.722124542124542
2739,1.7205128205128206
2740,1.7197069597069596
2741,1.7237362637362637
2742,1.7237362637362637
2743,1.726153846153846
2744,1.7245421245421246
2745,1.7253479853479852
2746,1.7237362637362637
2747,1.7213186813186812
2748,1.722124542124542
2749,1.722930402930403
2750,1.7189010989010989
2751,1.722124542124542
2752,1.7197069597069596
2753,1.7205128205128206
2754,1.722124542124542
2755,1.7197069597069596
2756,1.7213186813186812
2757,1.718095238095238
2758,1.7148717948717949
2759,1.718095238095238
2760,1.7172893772893771
2761,1.7156776556776556
2762,1.7084249084249084
2763,1.7140659340659339
2764,1.7189010989010989
2765,1.7156776556776556
2766,1.7172893772893771
2767,1.7213186813186812
2768,1.7156776556776556
2769,1.7213186813186812
2770,1.722930402930403
2771,1.7245421245421246
2772,1.726153846153846
2773,1.726153846153846
2774,1.7326007326007327
2775,1.7342124542124542
2776,1.7374358974358972
2777,1.739047619047619
2778,1.7382417582417582
2779,1.7463003663003662
2780,1.747912087912088
2781,1.7503296703296702
2782,1.751135531135531
2783,1.7503296703296702
2784,1.7503296703296702
2785,1.7422710622710622
2786,1.7503296703296702
2787,1.747912087912088
2788,1.7414652014652012
2789,1.743882783882784
2790,1.7414652014652012
2791,1.7398534798534797
2792,1.735018315018315
2793,1.7342124542124542
2794,1.730989010989011
2795,1.730989010989011
2796,1.7317948717948717
2797,1.7326007326007327
2798,1.73018315018315
2799,1.7317948717948717
2800,1.7326007326007327
2801,1.7366300366300367
2802,1.7398534798534797
2803,1.73018315018315
2804,1.739047619047619
2805,1.7463003663003662
2806,1.7495238095238093
2807,1.747106227106227
2808,1.7503296703296702
2809,1.7567765567765568
2810,1.755164835164835
2811,1.7567765567765568
2812,1.759194139194139
2813,1.7503296703296702
2814,1.759194139194139
2815,1.764029304029304
2816,1.764029304029304
2817,1.764029304029304
2818,1.763223443223443
2819,1.759194139194139
2820,1.76
2821,1.759194139194139
2822,1.755164835164835
2823,1.7543589743589743
2824,1.7487179487179487
2825,1.751941391941392
2826,1.7463003663003662
2827,1.743882783882784
2828,1.7463003663003662
2829,1.7382417582417582
2830,1.7374358974358972
2831,1.7406593406593407
2832,1.7334065934065932
2833,1.7398534798534797
2834,1.7342124542124542
2835,1.7342124542124542
2836,1.7326007326007327
2837,1.7317948717948717
2838,1.7358241758241757
2839,1.7358241758241757
2840,1.7446886446886447
2841,1.726959706959707
2842,1.726959706959707
2843,1.726153846153846
2844,1.7253479853479852
2845,1.7245421245421246
2846,1.7213186813186812
2847,1.7197069597069596
2848,1.7189010989010989
2849,1.722124542124542
2850,1.7237362637362637
2851,1.7205128205128206
2852,1.7205128205128206
2853,1.7197069597069596
2854,1.7164835164835164
2855,1.7156776556776556
2856,1.7189010989010989
2857,1.7253479853479852
2858,1.7197069597069596
2859,1.718095238095238
2860,1.722930402930403
2861,1.7213186813186812
2862,1.7245421245421246
2863,1.7277655677655677
2864,1.7277655677655677
2865,1.7334065934065932
2866,1.7334065934065932
2867,1.7406593406593407
2868,1.7382417582417582
2869,1.7422710622710622
2870,1.7446886446886447
2871,1.7414652014652012
2872,1.7487179487179487
2873,1.7454945054945052
2874,1.7454945054945052
2875,1.747912087912088
2876,1.7495238095238093
2877,1.747912087912088
2878,1.7495238095238093
2879,1.751941391941392
2880,1.7495238095238093
2881,1.7503296703296702
2882,1.7503296703296702
2883,1.755164835164835
2884,1.7535531135531133
2885,1.7543589743589743
2886,1.7527472527472527
2887,1.7535531135531133
2888,1.751941391941392
2889,1.751941391941392
2890,1.7446886446886447
2891,1.7487179487179487
2892,1.747106227106227
2893,1.7422710622710622
2894,1.7406593406593407
2895,1.7414652014652012
2896,1.735018315018315
2897,1.7366300366300367
2898,1.7317948717948717
2899,1.7326007326007327
2900,1.73018315018315
2901,1.7334065934065932
2902,1.7293772893772892
2903,1.7317948717948717
2904,1.7317948717948717
2905,1.7342124542124542
2906,1.7342124542124542
2907,1.7358241758241757
2908,1.735018315018315
2909,1.755970695970696
2910,1.7374358974358972
2911,1.7422710622710622
2912,1.7414652014652012
2913,1.7446886446886447
2914,1.735018315018315
2915,1.7342124542124542
2916,1.7487179487179487
2917,1.751135531135531
2918,1.747106227106227
2919,1.7495238095238093
2920,1.743076923076923
2921,1.7446886446886447
2922,1.7398534798534797
2923,1.7398534798534797
2924,1.7277655677655677
2925,1.735018315018315
2926,1.7342124542124542
2927,1.73018315018315
2928,1.726959706959707
2929,1.7237362637362637
2930,1.722124542124542
2931,1.722930402930403
2932,1.7285714285714286
2933,1.7213186813186812
2934,1.722124542124542
2935,1.7172893772893771
2936,1.7205128205128206
2937,1.7197069597069596
2938,1.7213186813186812
2939,1.726153846153846
2940,1.7293772893772892
2941,1.73018315018315
2942,1.7334065934065932
2943,1.7342124542124542
2944,1.7334065934065932
2945,1.7382417582417582
2946,1.7422710622710622
2947,1.7422710622710622
2948,1.7454945054945052
2949,1.7382417582417582
2950,1.755970695970696
2951,1.7583882783882783
2952,1.76
2953,1.7608058608058608
2954,1.7664468864468863
2955,1.7664468864468863
2956,1.767252747252747
2957,1.763223443223443
2958,1.7712820512820513
2959,1.772087912087912
2960,1.7696703296703296
2961,1.7728937728937728
2962,1.7704761904761903
2963,1.7656410256410255
2964,1.7656410256410255
2965,1.7696703296703296
2966,1.7648351648351648
2967,1.763223443223443
2968,1.7616117216117215
2969,1.7656410256410255
2970,1.7527472527472527
2971,1.7624175824175823
2972,1.7583882783882783
2973,1.755970695970696
2974,1.7495238095238093
2975,1.747912087912088
2976,1.7487179487179487
2977,1.747106227106227
2978,1.7463003663003662
2979,1.7398534798534797
2980,1.735018315018315
2981,1.7342124542124542
2982,1.7285714285714286
2983,1.726959706959707
2984,1.726153846153846
2985,1.7197069597069596
2986,1.722930402930403
2987,1.722930402930403
2988,1.722124542124542
2989,1.722930402930403
2990,1.722930402930403
2991,1.7277655677655677
2992,1.7277655677655677
2993,1.730989010989011
2994,1.7334065934065932
2995,1.7358241758241757
2996,1.7446886446886447
2997,1.7495238095238093
2998,1.7495238095238093
2999,1.7535531135531133
3000,1.7495238095238093
3001,1.763223443223443
3002,1.7616117216117215
3003,1.768058608058608
3004,1.7688644688644688
3005,1.7688644688644688
3006,1.7704761904761903
3007,1.7728937728937728
3008,1.7696703296703296
3009,1.7704761904761903
3010,1.7664468864468863
3011,1.7696703296703296
3012,1.7656410256410255
3013,1.7656410256410255
3014,1.7624175824175823
3015,1.7664468864468863
3016,1.76
3017,1.751135531135531
3018,1.751941391941392
3019,1.751941391941392
3020,1.7495238095238093
3021,1.747912087912088
3022,1.7487179487179487
3023,1.7382417582417582
3024,1.743076923076923
3025,1.7414652014652012
3026,1.7446886446886447
3027,1.743882783882784
3028,1.747912087912088
3029,1.747912087912088
3030,1.7463003663003662
3031,1.7463003663003662
3032,1.7503296703296702
3033,1.743882783882784
3034,1.7487179487179487
3035,1.755164835164835
3036,1.7495238095238093
3037,1.7583882783882783
3038,1.7543589743589743
3039,1.7608058608058608
3040,1.7648351648351648
3041,1.767252747252747
3042,1.763223443223443
3043,1.7567765567765568
3044,1.7688644688644688
3045,1.7696703296703296
3046,1.759194139194139
3047,1.755970695970696
3048,1.7583882783882783
3049,1.759194139194139
3050,1.759194139194139
3051,1.751135531135531
3052,1.7487179487179487
3053,1.7487179487179487
3054,1.7422710622710622
3055,1.739047619047619
3056,1.7358241758241757
3057,1.7293772893772892
3058,1.7285714285714286
3059,1.7293772893772892
3060,1.7277655677655677
3061,1.7237362637362637
3062,1.7213186813186812
3063,1.726153846153846
3064,1.7213186813186812
3065,1.7213186813186812
3066,1.7205128205128206
3067,1.7245421245421246
3068,1.722930402930403
3069,1.7245421245421246
3070,1.726153846153846
3071,1.7253479853479852
3072,1.7293772893772892
3073,1.7342124542124542
3074,1.726959706959707
3075,1.73018315018315
3076,1.7366300366300367
3077,1.7382417582417582
3078,1.7406593406593407
3079,1.743076923076923
3080,1.7414652014652012
3081,1.7446886446886447
3082,1.747912087912088
3083,1.747912087912088
3084,1.747912087912088
3085,1.755970695970696
3086,1.751941391941392
3087,1.78014652014652
3088,1.7535531135531133
3089,1.751941391941392
3090,1.751941391941392
3091,1.751941391941392
3092,1.751941391941392
3093,1.751135531135531
3094,1.7527472527472527
3095,1.755970695970696
3096,1.751941391941392
3097,1.7487179487179487
3098,1.751135531135531
3099,1.7487179487179487
3100,1.7446886446886447
3101,1.7446886446886447
3102,1.7414652014652012
3103,1.739047619047619
3104,1.7414652014652012
3105,1.739047619047619
3106,1.7382417582417582
3107,1.7358241758241757
3108,1.739047619047619
3109,1.7422710622710622
3110,1.7326007326007327
3111,1.7342124542124542
3112,1.7342124542124542
3113,1.7358241758241757
3114,1.7334065934065932
3115,1.730989010989011
3116,1.730989010989011
3117,1.7342124542124542
3118,1.73018315018315
3119,1.7317948717948717
3120,1.7293772893772892
3121,1.7326007326007327
3122,1.7293772893772892
3123,1.73018315018315
3124,1.735018315018315
3125,1.735018315018315
3126,1.7398534798534797
3127,1.7374358974358972
3128,1.7414652014652012
3129,1.7414652014652012
3130,1.747106227106227
3131,1.7487179487179487
3132,1.7487179487179487
3133,1.751941391941392
3134,1.751135531135531
3135,1.7543589743589743
3136,1.7583882783882783
3137,1.755970695970696
3138,1.76
3139,1.7656410256410255
3140,1.763223443223443
3141,1.764029304029304
3142,1.7664468864468863
3143,1.7688644688644688
3144,1.767252747252747
3145,1.7688644688644688
3146,1.767252747252747
3147,1.768058608058608
3148,1.7656410256410255
3149,1.7664468864468863
3150,1.7624175824175823
3151,1.767252747252747
3152,1.763223443223443
3153,1.767252747252747
3154,1.7616117216117215
3155,1.768058608058608
3156,1.7648351648351648
3157,1.7648351648351648
3158,1.7616117216117215
3159,1.764029304029304
3160,1.759194139194139
3161,1.759194139194139
3162,1.76
3163,1.755164835164835
3164,1.7583882783882783
3165,1.763223443223443
3166,1.763223443223443
3167,1.7648351648351648
3168,1.7624175824175823
3169,1.7656410256410255
3170,1.755164835164835
3171,1.7624175824175823
3172,1.759194139194139
3173,1.7567765567765568
3174,1.7608058608058608
3175,1.7446886446886447
3176,1.7583882783882783
3177,1.7454945054945052
3178,1.755164835164835
3179,1.7543589743589743
3180,1.7543589743589743
3181,1.755164835164835
3182,1.7543589743589743
3183,1.7487179487179487
3184,1.755970695970696
3185,1.7495238095238093
3186,1.7463003663003662
3187,1.747106227106227
3188,1.747106227106227
3189,1.7454945054945052
3190,1.7463003663003662
3191,1.747106227106227
3192,1.7414652014652012
3193,1.7398534798534797
3194,1.7414652014652012
3195,1.7414652014652012
3196,1.7398534798534797
3197,1.7414652014652012
3198,1.7374358974358972
3199,1.7406593406593407
3200,1.7398534798534797
3201,1.7277655677655677
3202,1.7358241758241757
3203,1.7374358974358972
3204,1.7366300366300367
3205,1.7406593406593407
3206,1.7422710622710622
3207,1.7422710622710622
3208,1.743882783882784
3209,1.7422710622710622
3210,1.7414652014652012
3211,1.7326007326007327
3212,1.7422710622710622
3213,1.7454945054945052
3214,1.7487179487179487
3215,1.7454945054945052
3216,1.7454945054945052
3217,1.747106227106227
3218,1.743882783882784
3219,1.7495238095238093
3220,1.747106227106227
3221,1.7495238095238093
3222,1.751135531135531
3223,1.747912087912088
3224,1.7463003663003662
3225,1.7454945054945052
3226,1.7446886446886447
3227,1.7446886446886447
3228,1.7454945054945052
3229,1.7422710622710622
3230,1.7422710622710622
3231,1.7406593406593407
3232,1.743076923076923
3233,1.743076923076923
3234,1.7446886446886447
3235,1.7463003663003662
3236,1.743882783882784
3237,1.743882783882784
3238,1.747912087912088
3239,1.7446886446886447
3240,1.7446886446886447
3241,1.7446886446886447
3242,1.7463003663003662
3243,1.7414652014652012
3244,1.7398534798534797
3245,1.743076923076923
3246,1.7374358974358972
3247,1.7374358974358972
3248,1.7334065934065932
3249,1.7285714285714286
3250,1.7293772893772892
3251,1.7293772893772892
3252,1.7197069597069596
3253,1.722930402930403
3254,1.7189010989010989
3255,1.718095238095238
3256,1.7189010989010989
3257,1.7172893772893771
3258,1.7172893772893771
3259,1.7172893772893771
3260,1.7205128205128206
3261,1.718095238095238
3262,1.7197069597069596
3263,1.7237362637362637
3264,1.7237362637362637
3265,1.726153846153846
3266,1.726153846153846
3267,1.7277655677655677
3268,1.726959706959707
3269,1.7317948717948717
3270,1.7334065934065932
3271,1.7366300366300367
3272,1.735018315018315
3273,1.7406593406593407
3274,1.7422710622710622
3275,1.7398534798534797
3276,1.7463003663003662
3277,1.7446886446886447
3278,1.747912087912088
3279,1.751135531135531
3280,1.7454945054945052
3281,1.747912087912088
3282,1.7503296703296702
3283,1.7487179487179487
3284,1.747912087912088
3285,1.7503296703296702
3286,1.7487179487179487
3287,1.7454945054945052
3288,1.7454945054945052
3289,1.735018315018315
3290,1.743076923076923
3291,1.7422710622710622
3292,1.7454945054945052
3293,1.7495238095238093
3294,1.747106227106227
3295,1.7543589743589743
3296,1.755164835164835
3297,1.7567765567765568
3298,1.7616117216117215
3299,1.767252747252747
3300,1.763223443223443
3301,1.767252747252747
3302,1.768058608058608
3303,1.7648351648351648
3304,1.767252747252747
3305,1.7648351648351648
3306,1.7616117216117215
3307,1.764029304029304
3308,1.7608058608058608
3309,1.7583882783882783
3310,1.7503296703296702
3311,1.7527472527472527
3312,1.7463003663003662
3313,1.7487179487179487
3314,1.747912087912088
3315,1.7422710622710622
3316,1.7414652014652012
3317,1.739047619047619
3318,1.7366300366300367
3319,1.7317948717948717
3320,1.7277655677655677
3321,1.7237362637362637
3322,1.7197069597069596
3323,1.7148717948717949
3324,1.718095238095238
3325,1.7140659340659339
3326,1.7108424908424908
3327,1.7108424908424908
3328,1.7076190476190476
3329,1.7108424908424908
3330,1.6947252747252746
3331,1.7132600732600731
3332,1.7140659340659339
3333,1.7205128205128206
3334,1.7164835164835164
3335,1.7237362637362637
3336,1.7189010989010989
3337,1.726959706959707
3338,1.730989010989011
3339,1.7382417582417582
3340,1.7366300366300367
3341,1.7406593406593407
3342,1.743882783882784
3343,1.747106227106227
3344,1.7463003663003662
3345,1.7535531135531133
3346,1.755164835164835
3347,1.7454945054945052
3348,1.7567765567765568
3349,1.7624175824175823
3350,1.76
3351,1.7616117216117215
3352,1.7616117216117215
3353,1.759194139194139
3354,1.7616117216117215
3355,1.76
3356,1.763223443223443
3357,1.751941391941392
3358,1.7567765567765568
3359,1.751941391941392
3360,1.7463003663003662
3361,1.747912087912088
3362,1.747106227106227
3363,1.7422710622710622
3364,1.743076923076923
3365,1.743882783882784
3366,1.7382417582417582
3367,1.7382417582417582
3368,1.7374358974358972
3369,1.739047619047619
3370,1.7374358974358972
3371,1.7374358974358972
3372,1.7317948717948717
3373,1.7374358974358972
3374,1.735018315018315
3375,1.7358241758241757
3376,1.7334065934065932
3377,1.7285714285714286
3378,1.7334065934065932
3379,1.7317948717948717
3380,1.7317948717948717
3381,1.7334065934065932
3382,1.7317948717948717
3383,1.73018315018315
3384,1.7342124542124542
3385,1.7358241758241757
3386,1.7317948717948717
3387,1.7398534798534797
3388,1.7366300366300367
3389,1.7374358974358972
3390,1.7398534798534797
3391,1.739047619047619
3392,1.735018315018315
3393,1.7317948717948717
3394,1.7398534798534797
3395,1.7414652014652012
3396,1.7446886446886447
3397,1.747106227106227
3398,1.751135531135531
3399,1.739047619047619
3400,1.743076923076923
3401,1.7567765567765568
3402,1.755970695970696
3403,1.763223443223443
3404,1.7567765567765568
3405,1.7543589743589743
3406,1.7583882783882783
3407,1.76
3408,1.7583882783882783
3409,1.7535531135531133
3410,1.7583882783882783
3411,1.755970695970696
3412,1.7535531135531133
3413,1.7543589743589743
3414,1.7535531135531133
3415,1.7406593406593407
3416,1.7543589743589743
3417,1.7567765567765568
3418,1.7575824175824175
3419,1.7543589743589743
3420,1.7535531135531133
3421,1.7382417582417582
3422,1.7535531135531133
3423,1.755164835164835
3424,1.7495238095238093
3425,1.7527472527472527
3426,1.7463003663003662
3427,1.7454945054945052
3428,1.7422710622710622
3429,1.7422710622710622
3430,1.7366300366300367
3431,1.7358241758241757
3432,1.735018315018315
3433,1.7342124542124542
3434,1.735018315018315
3435,1.7197069597069596
3436,1.730989010989011
3437,1.7334065934065932
3438,1.7326007326007327
3439,1.7317948717948717
3440,1.7382417582417582
3441,1.739047619047619
3442,1.743076923076923
3443,1.7446886446886447
3444,1.7446886446886447
3445,1.747106227106227
3446,1.747106227106227
3447,1.7503296703296702
3448,1.7463003663003662
3449,1.751135531135531
3450,1.7527472527472527
3451,1.755164835164835
3452,1.7527472527472527
3453,1.751941391941392
3454,1.7535531135531133
3455,1.755970695970696
3456,1.7583882783882783
3457,1.7535531135531133
3458,1.7575824175824175
3459,1.7567765567765568
3460,1.755970695970696
3461,1.7575824175824175
3462,1.7567765567765568
3463,1.7567765567765568
3464,1.7527472527472527
3465,1.751941391941392
3466,1.7543589743589743
3467,1.755164835164835
3468,1.7535531135531133
3469,1.755164835164835
3470,1.7527472527472527
3471,1.7543589743589743
3472,1.7527472527472527
3473,1.7608058608058608
3474,1.7495238095238093
3475,1.7495238095238093
3476,1.751941391941392
3477,1.7446886446886447
3478,1.7446886446886447
3479,1.743882783882784
3480,1.739047619047619
3481,1.7358241758241757
3482,1.7406593406593407
3483,1.7374358974358972
3484,1.7334065934065932
3485,1.7293772893772892
3486,1.7293772893772892
3487,1.7326007326007327
3488,1.7293772893772892
3489,1.73018315018315
3490,1.730989010989011
3491,1.7326007326007327
3492,1.747106227106227
3493,1.743076923076923
3494,1.7446886446886447
3495,1.7487179487179487
3496,1.751135531135531
3497,1.7543589743589743
3498,1.7608058608058608
3499,1.7616117216117215
3500,1.763223443223443
3501,1.7648351648351648
3502,1.7656410256410255
3503,1.7648351648351648
3504,1.7616117216117215
3505,1.7656410256410255
3506,1.763223443223443
3507,1.7656410256410255
3508,1.7616117216117215
3509,1.7624175824175823
3510,1.7583882783882783
3511,1.7616117216117215
3512,1.7575824175824175
3513,1.755970695970696
3514,1.7543589743589743
3515,1.755970695970696
3516,1.7503296703296702
3517,1.747912087912088
3518,1.747912087912088
3519,1.743882783882784
3520,1.7422710622710622
3521,1.7422710622710622
3522,1.7382417582417582
3523,1.7358241758241757
3524,1.7334065934065932
3525,1.735018315018315
3526,1.7342124542124542
3527,1.743076923076923
3528,1.739047619047619
3529,1.7422710622710622
3530,1.7495238095238093
3531,1.7503296703296702
3532,1.7495238095238093
3533,1.755164835164835
3534,1.76
3535,1.7575824175824175
3536,1.76
3537,1.7688644688644688
3538,1.767252747252747
3539,1.772087912087912
3540,1.7745054945054943
3541,1.7745054945054943
3542,1.776117216117216
3543,1.7785347985347983
3544,1.7777289377289376
3545,1.7817582417582416
3546,1.7769230769230768
3547,1.7785347985347983
3548,1.7785347985347983
3549,1.7809523809523808
3550,1.7745054945054943
3551,1.776117216117216
3552,1.7728937728937728
3553,1.772087912087912
3554,1.7664468864468863
3555,1.7664468864468863
3556,1.7648351648351648
3557,1.764029304029304
3558,1.7575824175824175
3559,1.7608058608058608
3560,1.76
3561,1.76
3562,1.7583882783882783
3563,1.7616117216117215
3564,1.759194139194139
3565,1.763223443223443
3566,1.7616117216117215
3567,1.7624175824175823
3568,1.763223443223443
3569,1.7688644688644688
3570,1.7648351648351648
3571,1.7648351648351648
3572,1.768058608058608
3573,1.7656410256410255
3574,1.7543589743589743
3575,1.768058608058608
3576,1.768058608058608
3577,1.7656410256410255
3578,1.7624175824175823
3579,1.7616117216117215
3580,1.76
3581,1.7583882783882783
3582,1.759194139194139
3583,1.76
3584,1.747912087912088
3585,1.7567765567765568
3586,1.7495238095238093
3587,1.747106227106227
3588,1.7414652014652012
3589,1.743882783882784
3590,1.743882783882784
3591,1.7406593406593407
3592,1.7414652014652012
3593,1.743882783882784
3594,1.7503296703296702
3595,1.7454945054945052
3596,1.7503296703296702
3597,1.751941391941392
3598,1.7527472527472527
3599,1.755970695970696
3600,1.755970695970696
3601,1.7583882783882783
3602,1.7535531135531133
3603,1.76
3604,1.7608058608058608
3605,1.7567765567765568
3606,1.7567765567765568
3607,1.76
3608,1.7616117216117215
3609,1.76
3610,1.7567765567765568
3611,1.755970695970696
3612,1.755164835164835
3613,1.751941391941392
3614,1.7535531135531133
3615,1.7567765567765568
3616,1.7583882783882783
3617,1.7567765567765568
3618,1.7535531135531133
3619,1.755164835164835
3620,1.7535531135531133
3621,1.7495238095238093
3622,1.7487179487179487
3623,1.7503296703296702
3624,1.7446886446886447
3625,1.7495238095238093
3626,1.747106227106227
3627,1.747912087912088
3628,1.7406593406593407
3629,1.7487179487179487
3630,1.7487179487179487
3631,1.751135531135531
3632,1.7535531135531133
3633,1.7503296703296702
3634,1.755164835164835
3635,1.755970695970696
3636,1.7535531135531133
3637,1.751941391941392
3638,1.7422710622710622
3639,1.7567765567765568
3640,1.7543589743589743
3641,1.755164835164835
3642,1.7535531135531133
3643,1.7575824175824175
3644,1.7583882783882783
3645,1.7608058608058608
3646,1.7567765567765568
3647,1.751135531135531
3648,1.7535531135531133
3649,1.76
3650,1.7567765567765568
3651,1.7535531135531133
3652,1.7543589743589743
3653,1.751135531135531
3654,1.7543589743589743
3655,1.751135531135531
3656,1.751135531135531
3657,1.7583882783882783
3658,1.7583882783882783
3659,1.7583882783882783
3660,1.7648351648351648
3661,1.7688644688644688
3662,1.7648351648351648
3663,1.7656410256410255
3664,1.7696703296703296
3665,1.7656410256410255
3666,1.767252747252747
3667,1.768058608058608
3668,1.764029304029304
3669,1.7656410256410255
3670,1.7656410256410255
3671,1.7712820512820513
3672,1.7712820512820513
3673,1.7745054945054943
3674,1.772087912087912
3675,1.7712820512820513
3676,1.776117216117216
3677,1.78014652014652
3678,1.7753113553113553
3679,1.7817582417582416
3680,1.7777289377289376
3681,1.7777289377289376
3682,1.7769230769230768
3683,1.7777289377289376
3684,1.7736996336996336
3685,1.7736996336996336
3686,1.7728937728937728
3687,1.7696703296703296
3688,1.7712820512820513
3689,1.7688644688644688
3690,1.76
3691,1.7648351648351648
3692,1.764029304029304
3693,1.763223443223443
3694,1.7624175824175823
3695,1.764029304029304
3696,1.7608058608058608
3697,1.7616117216117215
3698,1.7583882783882783
3699,1.7583882783882783
3700,1.76
3701,1.7575824175824175
3702,1.759194139194139
3703,1.7608058608058608
3704,1.7616117216117215
3705,1.7664468864468863
3706,1.7624175824175823
3707,1.7664468864468863
3708,1.768058608058608
3709,1.767252747252747
3710,1.7728937728937728
3711,1.7769230769230768
3712,1.7704761904761903
3713,1.776117216117216
3714,1.7769230769230768
3715,1.7736996336996336
3716,1.7712820512820513
3717,1.7712820512820513
3718,1.7688644688644688
3719,1.763223443223443
3720,1.76
3721,1.76
3722,1.755970695970696
3723,1.7487179487179487
3724,1.7422710622710622
3725,1.7454945054945052
3726,1.7422710622710622
3727,1.7463003663003662
3728,1.7398534798534797
3729,1.7366300366300367
3730,1.7398534798534797
3731,1.7398534798534797
3732,1.7334065934065932
3733,1.7366300366300367
3734,1.7326007326007327
3735,1.73018315018315
3736,1.735018315018315
3737,1.7293772893772892
3738,1.7342124542124542
3739,1.739047619047619
3740,1.7366300366300367
3741,1.7398534798534797
3742,1.7422710622710622
3743,1.747106227106227
3744,1.7454945054945052
3745,1.7463003663003662
3746,1.7535531135531133
3747,1.751135531135531
3748,1.7503296703296702
3749,1.747912087912088
3750,1.7503296703296702
3751,1.7503296703296702
3752,1.7487179487179487
3753,1.747912087912088
3754,1.743882783882784
3755,1.7454945054945052
3756,1.7454945054945052
3757,1.7374358974358972
3758,1.7382417582417582
3759,1.735018315018315
3760,1.7342124542124542
3761,1.735018315018315
3762,1.7164835164835164
3763,1.730989010989011
3764,1.730989010989011
3765,1.7334065934065932
3766,1.73018315018315
3767,1.730989010989011
3768,1.7342124542124542
3769,1.7406593406593407
3770,1.7414652014652012
3771,1.743076923076923
3772,1.747106227106227
3773,1.747912087912088
3774,1.7503296703296702
3775,1.7535531135531133
3776,1.7527472527472527
3777,1.7503296703296702
3778,1.7543589743589743
3779,1.7608058608058608
3780,1.7608058608058608
3781,1.759194139194139
3782,1.764029304029304
3783,1.764029304029304
3784,1.7664468864468863
3785,1.7688644688644688
3786,1.764029304029304
3787,1.7696703296703296
3788,1.7728937728937728
3789,1.7704761904761903
3790,1.7696703296703296
3791,1.776117216117216
3792,1.7736996336996336
3793,1.7736996336996336
3794,1.7704761904761903
3795,1.7728937728937728
3796,1.7753113553113553
3797,1.7728937728937728
3798,1.764029304029304
3799,1.7769230769230768
3800,1.7793406593406593
3801,1.776117216117216
3802,1.7769230769230768
3803,1.7793406593406593
3804,1.7736996336996336
3805,1.7736996336996336
3806,1.7736996336996336
3807,1.7656410256410255
3808,1.7696703296703296
3809,1.7712820512820513
3810,1.768058608058608
3811,1.768058608058608
3812,1.764029304029304
3813,1.763223443223443
3814,1.7583882783882783
3815,1.7583882783882783
3816,1.7535531135531133
3817,1.7527472527472527
3818,1.751135531135531
3819,1.7535531135531133
3820,1.7454945054945052
3821,1.747912087912088
3822,1.747912087912088
3823,1.747106227106227
3824,1.7454945054945052
3825,1.747106227106227
3826,1.747912087912088
3827,1.747912087912088
3828,1.747106227106227
3829,1.7535531135531133
3830,1.755970695970696
3831,1.7616117216117215
3832,1.764029304029304
3833,1.7648351648351648
3834,1.7688644688644688
3835,1.7688644688644688
3836,1.7712820512820513
3837,1.772087912087912
3838,1.7745054945054943
3839,1.7777289377289376
3840,1.7736996336996336
3841,1.7753113553113553
3842,1.7745054945054943
3843,1.768058608058608
3844,1.7688644688644688
3845,1.768058608058608
3846,1.764029304029304
3847,1.7575824175824175
3848,1.751135531135531
3849,1.7503296703296702
3850,1.747106227106227
3851,1.7454945054945052
3852,1.7414652014652012
3853,1.7358241758241757
3854,1.7366300366300367
3855,1.735018315018315
3856,1.7334065934065932
3857,1.7293772893772892
3858,1.73018315018315
3859,1.7293772893772892
3860,1.7277655677655677
3861,1.726959706959707
3862,1.7326007326007327
3863,1.7253479853479852
3864,1.7326007326007327
3865,1.735018315018315
3866,1.7334065934065932
3867,1.739047619047619
3868,1.7406593406593407
3869,1.7487179487179487
3870,1.7495238095238093
3871,1.7503296703296702
3872,1.7543589743589743
3873,1.755970695970696
3874,1.7543589743589743
3875,1.755970695970696
3876,1.7616117216117215
3877,1.7624175824175823
3878,1.7624175824175823
3879,1.7608058608058608
3880,1.7575824175824175
3881,1.76
3882,1.76
3883,1.7567765567765568
3884,1.7575824175824175
3885,1.772087912087912
3886,1.76
3887,1.7527472527472527
3888,1.755970695970696
3889,1.755164835164835
3890,1.7567765567765568
3891,1.7543589743589743
3892,1.759194139194139
3893,1.76
3894,1.7656410256410255
3895,1.767252747252747
3896,1.767252747252747
3897,1.7736996336996336
3898,1.772087912087912
3899,1.7753113553113553
3900,1.772087912087912
3901,1.7736996336996336
3902,1.7712820512820513
3903,1.7704761904761903
3904,1.7728937728937728
3905,1.7728937728937728
3906,1.7688644688644688
3907,1.767252747252747
3908,1.7688644688644688
3909,1.768058608058608
3910,1.764029304029304
3911,1.7664468864468863
3912,1.763223443223443
3913,1.7616117216117215
3914,1.76
3915,1.7608058608058608
3916,1.7535531135531133
3917,1.755164835164835
3918,1.7527472527472527
3919,1.751135531135531
3920,1.7487179487179487
3921,1.7495238095238093
3922,1.7446886446886447
3923,1.7446886446886447
3924,1.7454945054945052
3925,1.7366300366300367
3926,1.7398534798534797
3927,1.743076923076923
3928,1.7422710622710622
3929,1.743076923076923
3930,1.7422710622710622
3931,1.747912087912088
3932,1.747106227106227
3933,1.7575824175824175
3934,1.7487179487179487
3935,1.7583882783882783
3936,1.759194139194139
3937,1.7656410256410255
3938,1.764029304029304
3939,1.7656410256410255
3940,1.7704761904761903
3941,1.7688644688644688
3942,1.768058608058608
3943,1.759194139194139
3944,1.7656410256410255
3945,1.7865934065934064
3946,1.7583882783882783
3947,1.76
3948,1.7535531135531133
3949,1.751941391941392
3950,1.7495238095238093
3951,1.747912087912088
3952,1.7487179487179487
3953,1.7463003663003662
3954,1.7422710622710622
3955,1.743076923076923
3956,1.743882783882784
3957,1.7398534798534797
3958,1.7414652014652012
3959,1.7422710622710622
3960,1.7414652014652012
3961,1.739047619047619
3962,1.743076923076923
3963,1.730989010989011
3964,1.7366300366300367
3965,1.7414652014652012
3966,1.7398534798534797
3967,1.7422710622710622
3968,1.7374358974358972
3969,1.7463003663003662
3970,1.743882783882784
3971,1.747912087912088
3972,1.7463003663003662
3973,1.751135531135531
3974,1.7503296703296702
3975,1.755970695970696
3976,1.7575824175824175
3977,1.743882783882784
3978,1.7503296703296702
3979,1.751135531135531
3980,1.7535531135531133
3981,1.751135531135531
3982,1.7503296703296702
3983,1.7535531135531133
3984,1.7535531135531133
3985,1.7543589743589743
3986,1.751941391941392
3987,1.7535531135531133
3988,1.7495238095238093
3989,1.7503296703296702
3990,1.7527472527472527
3991,1.751941391941392
3992,1.7454945054945052
3993,1.7495238095238093
3994,1.7543589743589743
3995,1.751135531135531
3996,1.751941391941392
3997,1.755970695970696
3998,1.7543589743589743
3999,1.7567765567765568
4000,1.759194139194139
4001,1.763223443223443
4002,1.7616117216117215
4003,1.763223443223443
4004,1.7616117216117215
4005,1.7704761904761903
4006,1.7728937728937728
4007,1.7696703296703296
4008,1.768058608058608
4009,1.772087912087912
4010,1.7648351648351648
4011,1.7688644688644688
4012,1.768058608058608
4013,1.7648351648351648
4014,1.764029304029304
4015,1.7575824175824175
4016,1.7583882783882783
4017,1.7616117216117215
4018,1.7567765567765568
4019,1.7583882783882783
4020,1.7527472527472527
4021,1.751941391941392
4022,1.7487179487179487
4023,1.7535531135531133
4024,1.7503296703296702
4025,1.7543589743589743
4026,1.751135531135531
4027,1.7535531135531133
4028,1.7495238095238093
4029,1.7575824175824175
4030,1.7535531135531133
4031,1.76
4032,1.7624175824175823
4033,1.7583882783882783
4034,1.7608058608058608
4035,1.7616117216117215
4036,1.763223443223443
4037,1.7608058608058608
4038,1.7624175824175823
4039,1.764029304029304
4040,1.7575824175824175
4041,1.7616117216117215
4042,1.7648351648351648
4043,1.7624175824175823
4044,1.7624175824175823
4045,1.7648351648351648
4046,1.76
4047,1.7575824175824175
4048,1.7535531135531133
4049,1.755970695970696
4050,1.751941391941392
4051,1.751941391941392
4052,1.7463003663003662
4053,1.7487179487179487
4054,1.7414652014652012
4055,1.7414652014652012
4056,1.743882783882784
4057,1.747106227106227
4058,1.7374358974358972
4059,1.7398534798534797
4060,1.7414652014652012
4061,1.7422710622710622
4062,1.7398534798534797
4063,1.7454945054945052
4064,1.7463003663003662
4065,1.747106227106227
4066,1.751135531135531
4067,1.7535531135531133
4068,1.7535531135531133
4069,1.7575824175824175
4070,1.7616117216117215
4071,1.7608058608058608
4072,1.7616117216117215
4073,1.763223443223443
4074,1.7664468864468863
4075,1.7664468864468863
4076,1.768058608058608
4077,1.7648351648351648
4078,1.768058608058608
4079,1.768058608058608
4080,1.7712820512820513
4081,1.772087912087912
4082,1.767252747252747
4083,1.7704761904761903
4084,1.764029304029304
4085,1.763223443223443
4086,1.7608058608058608
4087,1.7535531135531133
4088,1.7575824175824175
4089,1.7616117216117215
4090,1.76
4091,1.7575824175824175
4092,1.7616117216117215
4093,1.759194139194139
4094,1.743882783882784
4095,1.7583882783882783
4096,1.7583882783882783
4097,1.7575824175824175
4098,1.7583882783882783
4099,1.763223443223443
4100,1.7575824175824175
4101,1.7575824175824175
4102,1.76
4103,1.7616117216117215
4104,1.755970695970696
4105,1.755164835164835
4106,1.7575824175824175
4107,1.7535531135531133
4108,1.751941391941392
4109,1.7543589743589743
4110,1.7527472527472527
4111,1.755164835164835
4112,1.7535531135531133
4113,1.751135531135531
4114,1.755164835164835
4115,1.7527472527472527
4116,1.751941391941392
4117,1.7463003663003662
4118,1.7535531135531133
4119,1.751135531135531
4120,1.751135531135531
4121,1.7535531135531133
4122,1.7503296703296702
4123,1.7454945054945052
4124,1.7495238095238093
4125,1.7463003663003662
4126,1.747106227106227
4127,1.7487179487179487
4128,1.747106227106227
4129,1.747106227106227
4130,1.7495238095238093
4131,1.755164835164835
4132,1.751941391941392
4133,1.7543589743589743
4134,1.7648351648351648
4135,1.76
4136,1.7575824175824175
4137,1.767252747252747
4138,1.7696703296703296
4139,1.7712820512820513
4140,1.7704761904761903
4141,1.7688644688644688
4142,1.7656410256410255
4143,1.764029304029304
4144,1.7616117216117215
4145,1.76
4146,1.7527472527472527
4147,1.76
4148,1.755164835164835
4149,1.7575824175824175
4150,1.751941391941392
4151,1.7527472527472527
4152,1.7527472527472527
4153,1.755970695970696
4154,1.751941391941392
4155,1.7358241758241757
4156,1.755970695970696
4157,1.7503296703296702
4158,1.7463003663003662
4159,1.751941391941392
4160,1.747106227106227
4161,1.7503296703296702
4162,1.7463003663003662
4163,1.751135531135531
4164,1.7487179487179487
4165,1.7487179487179487
4166,1.751135531135531
4167,1.7495238095238093
4168,1.7495238095238093
4169,1.7535531135531133
4170,1.7543589743589743
4171,1.7608058608058608
4172,1.7608058608058608
4173,1.7624175824175823
4174,1.764029304029304
4175,1.768058608058608
4176,1.768058608058608
4177,1.7664468864468863
4178,1.7688644688644688
4179,1.7688644688644688
4180,1.768058608058608
4181,1.7656410256410255
4182,1.7608058608058608
4183,1.763223443223443
4184,1.7608058608058608
4185,1.763223443223443
4186,1.7583882783882783
4187,1.7567765567765568
4188,1.755970695970696
4189,1.7503296703296702
4190,1.7487179487179487
4191,1.751135531135531
4192,1.747106227106227
4193,1.7454945054945052
4194,1.7446886446886447
4195,1.743076923076923
4196,1.7382417582417582
4197,1.739047619047619
4198,1.7358241758241757
4199,1.7334065934065932
4200,1.7334065934065932
4201,1.7245421245421246
4202,1.7213186813186812
4203,1.722930402930403
4204,1.730989010989011
4205,1.7342124542124542
4206,1.7326007326007327
4207,1.7326007326007327
4208,1.7366300366300367
4209,1.7366300366300367
4210,1.743882783882784
4211,1.7463003663003662
4212,1.7446886446886447
4213,1.743882783882784
4214,1.7463003663003662
4215,1.747912087912088
4216,1.7463003663003662
4217,1.7342124542124542
4218,1.747106227106227
4219,1.7454945054945052
4220,1.751941391941392
4221,1.7446886446886447
4222,1.747912087912088
4223,1.7454945054945052
4224,1.7495238095238093
4225,1.7487179487179487
4226,1.747106227106227
4227,1.7487179487179487
4228,1.7527472527472527
4229,1.7567765567765568
4230,1.755164835164835
4231,1.7608058608058608
4232,1.7616117216117215
4233,1.7616117216117215
4234,1.764029304029304
4235,1.767252747252747
4236,1.768058608058608
4237,1.763223443223443
4238,1.7648351648351648
4239,1.7656410256410255
4240,1.7624175824175823
4241,1.768058608058608
4242,1.767252747252747
4243,1.768058608058608
4244,1.7648351648351648
4245,1.768058608058608
4246,1.7608058608058608
4247,1.7648351648351648
4248,1.759194139194139
4249,1.76
4250,1.759194139194139
4251,1.751941391941392
4252,1.7543589743589743
4253,1.7543589743589743
4254,1.751941391941392
4255,1.7503296703296702
4256,1.7487179487179487
4257,1.7495238095238093
4258,1.7463003663003662
4259,1.7446886446886447
4260,1.7487179487179487
4261,1.751941391941392
4262,1.751941391941392
4263,1.7535531135531133
4264,1.755970695970696
4265,1.759194139194139
4266,1.763223443223443
4267,1.7608058608058608
4268,1.7664468864468863
4269,1.7648351648351648
4270,1.7648351648351648
4271,1.7728937728937728
4272,1.7688644688644688
4273,1.7712820512820513
4274,1.7736996336996336
4275,1.7745054945054943
4276,1.776117216117216
4277,1.7753113553113553
4278,1.7777289377289376
4279,1.772087912087912
4280,1.7777289377289376
4281,1.7753113553113553
4282,1.7736996336996336
4283,1.776117216117216
4284,1.7696703296703296
4285,1.7696703296703296
4286,1.772087912087912
4287,1.7648351648351648
4288,1.7583882783882783
4289,1.7583882783882783
4290,1.7527472527472527
4291,1.7527472527472527
4292,1.7527472527472527
4293,1.751941391941392
4294,1.751941391941392
4295,1.747106227106227
4296,1.7495238095238093
4297,1.7527472527472527
4298,1.7535531135531133
4299,1.751135531135531
4300,1.755970695970696
4301,1.7567765567765568
4302,1.755970695970696
4303,1.763223443223443
4304,1.7664468864468863
4305,1.7736996336996336
4306,1.7624175824175823
4307,1.7736996336996336
4308,1.7833699633699633
4309,1.7873992673992674
4310,1.7865934065934064
4311,1.7914285714285714
4312,1.7898168498168496
4313,1.7922344322344321
4314,1.7898168498168496
4315,1.7938461538461536
4316,1.7914285714285714
4317,1.7906227106227104
4318,1.7922344322344321
4319,1.7922344322344321
4320,1.7857875457875456
4321,1.7906227106227104
4322,1.7857875457875456
4323,1.78014652014652
4324,1.7785347985347983
4325,1.7753113553113553
4326,1.7728937728937728
4327,1.7728937728937728
4328,1.763223443223443
4329,1.7608058608058608
4330,1.76
4331,1.755970695970696
4332,1.7503296703296702
4333,1.7446886446886447
4334,1.7495238095238093
4335,1.7487179487179487
4336,1.7463003663003662
4337,1.7374358974358972
4338,1.7487179487179487
4339,1.7503296703296702
4340,1.747912087912088
4341,1.7495238095238093
4342,1.747912087912088
4343,1.751941391941392
4344,1.7463003663003662
4345,1.7495238095238093
4346,1.7487179487179487
4347,1.7487179487179487
4348,1.7527472527472527
4349,1.7535531135531133
4350,1.751941391941392
4351,1.7535531135531133
4352,1.751135531135531
4353,1.751135531135531
4354,1.751135531135531
4355,1.7575824175824175
4356,1.7543589743589743
4357,1.7317948717948717
4358,1.7503296703296702
4359,1.7535531135531133
4360,1.751941391941392
4361,1.7527472527472527
4362,1.7567765567765568
4363,1.7543589743589743
4364,1.755164835164835
4365,1.759194139194139
4366,1.7575824175824175
4367,1.7575824175824175
4368,1.7575824175824175
4369,1.7616117216117215
4370,1.7624175824175823
4371,1.7616117216117215
4372,1.7648351648351648
4373,1.763223443223443
4374,1.7624175824175823
4375,1.767252747252747
4376,1.767252747252747
4377,1.767252747252747
4378,1.7656410256410255
4379,1.7753113553113553
4380,1.7656410256410255
4381,1.7656410256410255
4382,1.763223443223443
4383,1.7688644688644688
4384,1.7688644688644688
4385,1.7664468864468863
4386,1.7656410256410255
4387,1.768058608058608
4388,1.764029304029304
4389,1.7616117216117215
4390,1.7608058608058608
4391,1.76
4392,1.7575824175824175
4393,1.7575824175824175
4394,1.7422710622710622
4395,1.7543589743589743
4396,1.7527472527472527
4397,1.751135531135531
4398,1.7503296703296702
4399,1.7527472527472527
4400,1.735018315018315
4401,1.7503296703296702
4402,1.747912087912088
4403,1.7495238095238093
4404,1.751941391941392
4405,1.755164835164835
4406,1.751135531135531
4407,1.7543589743589743
4408,1.7575824175824175
4409,1.7583882783882783
4410,1.7575824175824175
4411,1.7567765567765568
4412,1.7567765567765568
4413,1.7454945054945052
4414,1.755970695970696
4415,1.759194139194139
4416,1.76
4417,1.7624175824175823
4418,1.7616117216117215
4419,1.763223443223443
4420,1.7656410256410255
4421,1.763223443223443
4422,1.76
4423,1.7664468864468863
4424,1.7664468864468863
4425,1.764029304029304
4426,1.7688644688644688
4427,1.7696703296703296
4428,1.767252747252747
4429,1.7688644688644688
4430,1.772087912087912
4431,1.7712820512820513
4432,1.7736996336996336
4433,1.7809523809523808
4434,1.7809523809523808
4435,1.784175824175824
4436,1.789010989010989
4437,1.7898168498168496
4438,1.793040293040293
4439,1.7825641025641024
4440,1.7898168498168496
4441,1.7970695970695971
4442,1.7922344322344321
4443,1.7873992673992674
4444,1.7873992673992674
4445,1.7873992673992674
4446,1.7833699633699633
4447,1.78014652014652
4448,1.7817582417582416
4449,1.7769230769230768
4450,1.7753113553113553
4451,1.7616117216117215
4452,1.7728937728937728
4453,1.7704761904761903
4454,1.776117216117216
4455,1.776117216117216
4456,1.7745054945054943
4457,1.7753113553113553
4458,1.7753113553113553
4459,1.7809523809523808
4460,1.7736996336996336
4461,1.7777289377289376
4462,1.7769230769230768
4463,1.7688644688644688
4464,1.7736996336996336
4465,1.7712820512820513
4466,1.7728937728937728
4467,1.7736996336996336
4468,1.772087912087912
4469,1.7704761904761903
4470,1.772087912087912
4471,1.7704761904761903
4472,1.7736996336996336
4473,1.7736996336996336
4474,1.7753113553113553
4475,1.776117216117216
4476,1.7777289377289376
4477,1.7785347985347983
4478,1.7769230769230768
4479,1.7704761904761903
4480,1.7745054945054943
4481,1.7825641025641024
4482,1.7777289377289376
4483,1.7809523809523808
4484,1.776117216117216
4485,1.7769230769230768
4486,1.7753113553113553
4487,1.7769230769230768
4488,1.768058608058608
4489,1.7736996336996336
4490,1.7696703296703296
4491,1.763223443223443
4492,1.7616117216117215
4493,1.763223443223443
4494,1.7575824175824175
4495,1.7616117216117215
4496,1.7583882783882783
4497,1.7575824175824175
4498,1.755970695970696
4499,1.747912087912088
4500,1.755164835164835
4501,1.7575824175824175
4502,1.7567765567765568
4503,1.7487179487179487
4504,1.751135531135531
4505,1.7543589743589743
4506,1.751941391941392
4507,1.7527472527472527
4508,1.7503296703296702
4509,1.7575824175824175
4510,1.7543589743589743
4511,1.7543589743589743
4512,1.759194139194139
4513,1.76
4514,1.7624175824175823
4515,1.7648351648351648
4516,1.76
4517,1.7656410256410255
4518,1.763223443223443
4519,1.7656410256410255
4520,1.7656410256410255
4521,1.768058608058608
4522,1.7616117216117215
4523,1.7664468864468863
4524,1.768058608058608
4525,1.7696703296703296
4526,1.767252747252747
4527,1.7688644688644688
4528,1.767252747252747
4529,1.7688644688644688
4530,1.7696703296703296
4531,1.7688644688644688
4532,1.7704761904761903
4533,1.7664468864468863
4534,1.7696703296703296
4535,1.7704761904761903
4536,1.7664468864468863
4537,1.7664468864468863
4538,1.7608058608058608
4539,1.7664468864468863
4540,1.7648351648351648
4541,1.764029304029304
4542,1.76
4543,1.7616117216117215
4544,1.755970695970696
4545,1.755164835164835
4546,1.755164835164835
4547,1.751941391941392
4548,1.7446886446886447
4549,1.7463003663003662
4550,1.747106227106227
4551,1.7398534798534797
4552,1.7454945054945052
4553,1.7398534798534797
4554,1.751941391941392
4555,1.751135531135531
4556,1.755970695970696
4557,1.7583882783882783
4558,1.76
4559,1.7656410256410255
4560,1.7656410256410255
4561,1.7688644688644688
4562,1.7704761904761903
4563,1.7777289377289376
4564,1.78014652014652
4565,1.776117216117216
4566,1.784981684981685
4567,1.7906227106227104
4568,1.789010989010989
4569,1.7962637362637361
4570,1.7986813186813186
4571,1.8019047619047617
4572,1.8027106227106227
4573,1.8091575091575092
4574,1.8099633699633697
4575,1.8115750915750914
4576,1.8131868131868132
4577,1.8139926739926737
4578,1.8156043956043955
4579,1.8123809523809524
4580,1.8083516483516484
4581,1.8099633699633697
4582,1.8035164835164834
4583,1.8043223443223442
4584,1.7962637362637361
4585,1.7914285714285714
4586,1.7857875457875456
4587,1.7777289377289376
4588,1.7777289377289376
4589,1.768058608058608
4590,1.7624175824175823
4591,1.7664468864468863
4592,1.755164835164835
4593,1.755970695970696
4594,1.7567765567765568
4595,1.7583882783882783
4596,1.7567765567765568
4597,1.7648351648351648
4598,1.7575824175824175
4599,1.759194139194139
4600,1.7583882783882783
4601,1.7624175824175823
4602,1.755970695970696
4603,1.747106227106227
4604,1.7616117216117215
4605,1.755164835164835
4606,1.7616117216117215
4607,1.767252747252747
4608,1.76
4609,1.763223443223443
4610,1.76
4611,1.7664468864468863
4612,1.7616117216117215
4613,1.7664468864468863
4614,1.7624175824175823
4615,1.7608058608058608
4616,1.7616117216117215
4617,1.763223443223443
4618,1.755970695970696
4619,1.7704761904761903
4620,1.7583882783882783
4621,1.7624175824175823
4622,1.76
4623,1.755164835164835
4624,1.7535531135531133
4625,1.7535531135531133
4626,1.7503296703296702
4627,1.7446886446886447
4628,1.7463003663003662
4629,1.747106227106227
4630,1.7358241758241757
4631,1.743076923076923
4632,1.7454945054945052
4633,1.747912087912088
4634,1.747912087912088
4635,1.7374358974358972
4636,1.7487179487179487
4637,1.7495238095238093
4638,1.7527472527472527
4639,1.7535531135531133
4640,1.7535531135531133
4641,1.755164835164835
4642,1.755164835164835
4643,1.7583882783882783
4644,1.759194139194139
4645,1.76
4646,1.7616117216117215
4647,1.7624175824175823
4648,1.7648351648351648
4649,1.768058608058608
4650,1.763223443223443
4651,1.7656410256410255
4652,1.7712820512820513
4653,1.7696703296703296
4654,1.7769230769230768
4655,1.7624175824175823
4656,1.7704761904761903
4657,1.7745054945054943
4658,1.767252747252747
4659,1.7648351648351648
4660,1.7648351648351648
4661,1.764029304029304
4662,1.764029304029304
4663,1.7648351648351648
4664,1.76
4665,1.7648351648351648
4666,1.755970695970696
4667,1.76
4668,1.7575824175824175
4669,1.7567765567765568
4670,1.7334065934065932
4671,1.7567765567765568
4672,1.7503296703296702
4673,1.747912087912088
4674,1.747106227106227
4675,1.7487179487179487
4676,1.7463003663003662
4677,1.743882783882784
4678,1.7446886446886447
4679,1.7422710622710622
4680,1.7406593406593407
4681,1.7406593406593407
4682,1.7398534798534797
4683,1.743882783882784
4684,1.7382417582417582
4685,1.7366300366300367
4686,1.7398534798534797
4687,1.7422710622710622
4688,1.7382417582417582
4689,1.730989010989011
4690,1.7414652014652012
4691,1.7454945054945052
4692,1.7446886446886447
4693,1.7454945054945052
4694,1.7495238095238093
4695,1.751941391941392
4696,1.7503296703296702
4697,1.763223443223443
4698,1.7608058608058608
4699,1.7696703296703296
4700,1.7736996336996336
4701,1.7769230769230768
4702,1.7704761904761903
4703,1.7809523809523808
4704,1.7817582417582416
4705,1.7817582417582416
4706,1.7857875457875456
4707,1.7793406593406593
4708,1.7817582417582416
4709,1.78014652014652
4710,1.7696703296703296
4711,1.7696703296703296
4712,1.7664468864468863
4713,1.764029304029304
4714,1.763223443223443
4715,1.7608058608058608
4716,1.7374358974358972
4717,1.7503296703296702
4718,1.7487179487179487
4719,1.747912087912088
4720,1.7398534798534797
4721,1.7406593406593407
4722,1.7398534798534797
4723,1.7398534798534797
4724,1.7342124542124542
4725,1.7342124542124542
4726,1.7326007326007327
4727,1.7398534798534797
4728,1.7398534798534797
4729,1.743882783882784
4730,1.7463003663003662
4731,1.7543589743589743
4732,1.7567765567765568
4733,1.76
4734,1.7648351648351648
4735,1.76
4736,1.768058608058608
4737,1.7688644688644688
4738,1.772087912087912
4739,1.7704761904761903
4740,1.7753113553113553
4741,1.7736996336996336
4742,1.7745054945054943
4743,1.7704761904761903
4744,1.7712820512820513
4745,1.772087912087912
4746,1.7736996336996336
4747,1.7753113553113553
4748,1.7704761904761903
4749,1.7704761904761903
4750,1.7728937728937728
4751,1.7745054945054943
4752,1.768058608058608
4753,1.7664468864468863
4754,1.764029304029304
4755,1.755970695970696
4756,1.7583882783882783
4757,1.7583882783882783
4758,1.755164835164835
4759,1.755970695970696
4760,1.7583882783882783
4761,1.7567765567765568
4762,1.7583882783882783
4763,1.7616117216117215
4764,1.755970695970696
4765,1.755164835164835
4766,1.755970695970696
4767,1.7575824175824175
4768,1.7575824175824175
4769,1.7624175824175823
4770,1.7567765567765568
4771,1.7616117216117215
4772,1.764029304029304
4773,1.768058608058608
4774,1.7664468864468863
4775,1.7712820512820513
4776,1.7648351648351648
4777,1.7696703296703296
4778,1.7656410256410255
4779,1.7696703296703296
4780,1.7656410256410255
4781,1.764029304029304
4782,1.7664468864468863
4783,1.7648351648351648
4784,1.764029304029304
4785,1.7624175824175823
4786,1.7616117216117215
4787,1.7608058608058608
4788,1.7527472527472527
4789,1.7543589743589743
4790,1.7535531135531133
4791,1.7487179487179487
4792,1.7463003663003662
4793,1.743882783882784
4794,1.7454945054945052
4795,1.7446886446886447
4796,1.7398534798534797
4797,1.743076923076923
4798,1.747106227106227
4799,1.743882783882784
4800,1.7454945054945052
4801,1.751941391941392
4802,1.7503296703296702
4803,1.751941391941392
4804,1.76
4805,1.76
4806,1.7616117216117215
4807,1.7608058608058608
4808,1.764029304029304
4809,1.764029304029304
4810,1.7664468864468863
4811,1.7696703296703296
4812,1.767252747252747
4813,1.7664468864468863
4814,1.7712820512820513
4815,1.7656410256410255
4816,1.7712820512820513
4817,1.7728937728937728
4818,1.7696703296703296
4819,1.7704761904761903
4820,1.767252747252747
4821,1.768058608058608
4822,1.7688644688644688
4823,1.767252747252747
4824,1.7664468864468863
4825,1.763223443223443
4826,1.7543589743589743
4827,1.763223443223443
4828,1.7616117216117215
4829,1.763223443223443
4830,1.76
4831,1.76
4832,1.7608058608058608
4833,1.7616117216117215
4834,1.755164835164835
4835,1.7583882783882783
4836,1.7583882783882783
4837,1.7535531135531133
4838,1.7583882783882783
4839,1.763223443223443
4840,1.7616117216117215
4841,1.7664468864468863
4842,1.764029304029304
4843,1.7656410256410255
4844,1.7608058608058608
4845,1.768058608058608
4846,1.7696703296703296
4847,1.767252747252747
4848,1.7736996336996336
4849,1.7688644688644688
4850,1.7704761904761903
4851,1.7688644688644688
4852,1.7696703296703296
4853,1.768058608058608
4854,1.7696703296703296
4855,1.7688644688644688
4856,1.7487179487179487
4857,1.7664468864468863
4858,1.7664468864468863
4859,1.7656410256410255
4860,1.7648351648351648
4861,1.7616117216117215
4862,1.7608058608058608
4863,1.7616117216117215
4864,1.7608058608058608
4865,1.76
4866,1.7543589743589743
4867,1.7567765567765568
4868,1.76
4869,1.7583882783882783
4870,1.7535531135531133
4871,1.7535531135531133
4872,1.7543589743589743
4873,1.7535531135531133
4874,1.7495238095238093
4875,1.751941391941392
4876,1.7495238095238093
4877,1.7495238095238093
4878,1.743076923076923
4879,1.743076923076923
4880,1.747912087912088
4881,1.7463003663003662
4882,1.7398534798534797
4883,1.7414652014652012
4884,1.7382417582417582
4885,1.7374358974358972
4886,1.7398534798534797
4887,1.7422710622710622
4888,1.7414652014652012
4889,1.743882783882784
4890,1.747106227106227
4891,1.7454945054945052
4892,1.7446886446886447
4893,1.747106227106227
4894,1.7406593406593407
4895,1.7487179487179487
4896,1.747912087912088
4897,1.7463003663003662
4898,1.751135531135531
4899,1.7535531135531133
4900,1.7527472527472527
4901,1.7567765567765568
4902,1.7535531135531133
4903,1.7583882783882783
4904,1.763223443223443
4905,1.7503296703296702
4906,1.764029304029304
4907,1.768058608058608
4908,1.7712820512820513
4909,1.7753113553113553
4910,1.7648351648351648
4911,1.7769230769230768
4912,1.78014652014652
4913,1.7873992673992674
4914,1.7865934065934064
4915,1.7914285714285714
4916,1.7882051282051281
4917,1.793040293040293
4918,1.7906227106227104
4919,1.7817582417582416
4920,1.7882051282051281
4921,1.7922344322344321
4922,1.7882051282051281
4923,1.7833699633699633
4924,1.7857875457875456
4925,1.7817582417582416
4926,1.7777289377289376
4927,1.776117216117216
4928,1.7712820512820513
4929,1.763223443223443
4930,1.7688644688644688
4931,1.7656410256410255
4932,1.763223443223443
4933,1.755970695970696
4934,1.7608058608058608
4935,1.7575824175824175
4936,1.7527472527472527
4937,1.7567765567765568
4938,1.7535531135531133
4939,1.7535531135531133
4940,1.7487179487179487
4941,1.751135531135531
4942,1.7575824175824175
4943,1.7543589743589743
4944,1.759194139194139
4945,1.7567765567765568
4946,1.755164835164835
4947,1.7543589743589743
4948,1.7535531135531133
4949,1.76
4950,1.755970695970696
4951,1.759194139194139
4952,1.76
4953,1.7535531135531133
4954,1.7567765567765568
4955,1.755164835164835
4956,1.755164835164835
4957,1.7567765567765568
4958,1.7398534798534797
4959,1.7503296703296702
4960,1.7503296703296702
4961,1.755164835164835
4962,1.751135531135531
4963,1.751135531135531
4964,1.7527472527472527
4965,1.7503296703296702
4966,1.7543589743589743
4967,1.7535531135531133
4968,1.751135531135531
4969,1.7535531135531133
4970,1.7503296703296702
4971,1.751135531135531
4972,1.7527472527472527
4973,1.755164835164835
4974,1.755164835164835
4975,1.751135531135531
4976,1.7527472527472527
4977,1.7535531135531133
4978,1.7583882783882783
4979,1.755970695970696
4980,1.7503296703296702
4981,1.751135531135531
4982,1.739047619047619
4983,1.747106227106227
4984,1.7446886446886447
4985,1.747106227106227
4986,1.743076923076923
4987,1.7463003663003662
4988,1.7454945054945052
4989,1.7446886446886447
4990,1.7446886446886447
4991,1.7495238095238093
4992,1.7422710622710622
4993,1.7495238095238093
4994,1.7463003663003662
4995,1.743882783882784
4996,1.7495238095238093
4997,1.751941391941392
4998,1.7535531135531133
4999,1.755970695970696
